date,type,frequency,duration,wearposition,signal
2021-08-29T18:29:57+02:00,Electrocardiogram,300,30,1,"19,32,48,39,37,40,38,14,2,13,24,14,-8,-4,12,42,30,-18,-71,-86,-48,-11,10,8,8,-3,-21,-38,-52,-55,-66,-66,-70,-52,-24,-2,-1,0,3,16,9,-9,-33,-30,-10,10,0,-8,-2,3,29,53,79,53,10,-25,-2,16,34,29,40,59,67,49,16,-19,-25,-3,32,59,66,78,80,59,17,-16,-17,3,2,-11,-33,-35,-14,-3,22,26,19,7,21,59,68,68,77,105,103,87,50,35,25,51,74,88,73,74,68,70,68,61,34,-10,2,40,80,63,42,31,21,11,3,15,31,42,41,19,7,9,38,39,25,-4,-53,-78,-66,-26,-10,-30,-21,19,100,231,402,610,810,963,1019,965,795,577,336,141,-13,-86,-88,-64,-47,-34,-21,-24,-41,-36,-15,-26,-59,-81,-77,-51,-40,-29,-38,-28,-10,8,2,-17,-28,-43,-55,-75,-90,-71,-48,-26,-33,-45,-35,-9,27,32,27,16,23,37,36,34,13,-7,2,18,35,37,52,69,53,38,48,109,162,171,146,126,123,132,159,192,217,219,213,190,155,124,131,144,143,130,123,136,136,140,137,133,107,63,6,-30,-30,-15,0,-7,-33,-57,-54,-39,-38,-52,-56,-49,-35,-28,-35,-39,-15,0,6,-24,-60,-85,-92,-61,-61,-64,-80,-74,-68,-56,-55,-50,-46,-30,-13,-22,-59,-86,-72,-19,1,-11,-49,-65,-74,-66,-53,-55,-58,-57,-32,-8,-6,-29,-49,-57,-30,-2,-2,-1,8,54,72,65,45,50,47,53,60,95,81,59,31,36,27,3,-21,-29,-22,-16,-8,8,23,22,0,-12,-13,3,27,71,104,102,69,47,54,79,72,34,11,26,82,127,136,127,92,84,98,135,157,159,140,106,53,-9,-34,-31,17,41,55,50,35,8,-35,-53,-53,-20,13,33,14,-2,-5,6,-4,-23,-52,-50,-5,28,19,-13,3,101,272,470,648,798,908,941,836,636,391,156,-8,-99,-110,-112,-80,-38,-15,-13,-36,-27,-34,-40,-76,-103,-113,-86,-48,-19,-13,-36,-82,-100,-83,-58,-51,-54,-31,-3,9,9,-2,-4,-11,-12,-23,-17,-12,12,28,24,16,29,59,80,80,72,69,48,40,40,91,160,177,144,86,67,50,25,18,33,77,103,119,115,119,133,138,138,125,135,161,205,230,236,221,188,158,135,101,64,15,-14,-42,-60,-64,-72,-73,-58,-36,-27,-39,-63,-79,-94,-116,-123,-123,-110,-116,-119,-113,-87,-54,-24,-36,-68,-108,-112,-104,-73,-68,-64,-99,-114,-133,-109,-89,-49,-33,-11,-18,-47,-102,-123,-118,-85,-71,-57,-44,-25,-3,-8,-32,-77,-106,-120,-135,-118,-85,-45,-22,-3,5,6,-21,-14,2,27,-2,-30,-46,-29,-28,-6,27,62,43,10,-42,-44,-28,21,36,61,83,74,41,26,44,57,20,-14,-47,-50,-30,0,20,22,36,67,85,92,84,103,115,98,54,23,20,35,36,34,13,-16,-23,-15,-11,-32,-39,2,39,46,19,3,-22,-30,-36,-7,9,17,20,25,39,29,0,-32,-41,-43,-53,-49,-38,-16,22,126,305,498,681,850,950,953,810,599,344,134,-3,-70,-98,-119,-108,-86,-46,-19,-11,-18,-36,-56,-94,-118,-94,-44,-8,-17,-34,-46,-54,-37,-20,7,-15,-66,-93,-83,-39,-3,22,23,-6,-14,0,30,29,2,-14,0,43,68,74,54,45,34,44,50,61,68,43,13,8,42,94,121,126,106,84,103,157,211,239,248,245,224,192,188,204,230,240,229,197,199,219,216,178,134,113,84,44,17,0,-6,-42,-68,-74,-49,-33,-30,-48,-97,-132,-98,-28,13,-15,-54,-78,-73,-55,-39,-16,-8,-21,-48,-67,-71,-81,-78,-61,-44,-54,-66,-72,-80,-67,-58,-32,-28,-49,-62,-72,-39,-35,-52,-74,-60,-19,1,5,-13,-8,16,37,28,-6,-25,-31,-20,-11,-2,-14,-45,-62,-43,-5,17,12,30,51,42,-15,-65,-65,-27,-5,-5,-21,-8,5,27,42,45,43,49,60,54,18,0,6,32,49,48,41,43,22,-9,-21,6,35,29,34,50,66,71,75,89,68,32,-9,-14,-10,1,-5,-16,-35,-40,-54,-39,-23,6,3,-11,-16,-7,16,39,42,38,13,-8,-50,-84,-87,-45,92,306,566,785,898,919,831,658,434,220,62,-48,-117,-123,-94,-55,-33,-33,-37,-41,-38,-20,-16,-14,-20,-9,-8,-34,-78,-95,-86,-57,-48,-25,-12,5,-3,-8,-13,0,9,20,27,41,37,31,20,33,31,8,-23,-20,21,55,63,63,70,65,36,20,59,117,158,147,137,138,151,159,162,180,200,219,199,176,165,172,175,171,169,176,203,208,189,157,136,131,137,127,87,44,38,41,19,-24,-34,-30,-24,-50,-78,-73,-50,-43,-70,-91,-87,-65,-49,-37,-38,-48,-70,-96,-126,-149,-160,-137,-107,-73,-48,-13,19,19,-21,-86,-128,-125,-98,-86,-62,-39,-15,-26,-56,-55,-59,-61,-80,-102,-89,-72,-52,-47,-39,-34,-44,-45,-24,0,4,-4,-8,-11,-11,-1,2,7,-11,-15,-39,-41,-43,-26,-33,-62,-84,-71,-29,8,24,34,28,4,-11,5,43,46,36,17,11,-11,-18,-3,9,22,19,25,24,38,48,60,58,53,43,60,74,91,81,71,46,21,3,12,23,39,42,34,20,6,2,5,3,-7,-8,-5,3,11,10,15,15,15,1,-8,-28,-47,-51,-18,12,10,-2,-11,-27,-50,-51,-6,86,218,388,585,772,902,949,873,698,472,258,89,-36,-77,-76,-55,-57,-48,-42,-39,-41,-34,-26,-36,-63,-89,-88,-68,-46,-23,-11,-5,-11,3,0,-32,-66,-57,-28,-33,-40,-17,14,15,-23,-31,-3,32,39,23,-3,0,14,43,47,43,50,44,35,27,35,53,60,61,53,47,61,76,105,126,141,158,168,167,159,165,190,197,194,191,208,211,182,146,136,164,185,178,153,105,66,42,19,-8,-30,-28,-19,-22,-26,-17,-16,-33,-74,-114,-123,-118,-104,-75,-41,-25,-56,-120,-153,-142,-126,-111,-91,-47,-25,-34,-28,-10,8,-2,-20,-37,-47,-53,-61,-51,-49,-63,-95,-116,-113,-105,-112,-120,-110,-89,-86,-82,-78,-63,-38,-2,28,34,7,-20,-45,-33,-24,-15,-32,-55,-89,-105,-84,-45,0,17,28,29,30,25,15,5,-4,-26,-46,-56,-40,-1,27,39,5,-18,-9,30,50,44,44,58,60,50,44,52,59,66,66,71,54,14,2,29,80,99,88,67,39,11,-8,-1,20,52,73,52,8,-37,-50,-27,0,19,1,-26,-58,-78,-91,-63,-28,-17,-25,-27,-12,-15,-22,-8,4,-12,-62,-99,-66,40,195,353,520,700,836,892,846,743,565,332,113,-35,-96,-129,-152,-142,-83,-34,-26,-45,-41,-31,-45,-76,-93,-89,-84,-87,-67,-30,6,16,23,26,14,-41,-97,-119,-86,-49,-41,-45,-56,-48,-42,-14,24,51,58,31,30,29,33,23,21,23,17,15,3,9,22,50,69,78,88,106,110,105,91,97,123,151,175,188,205,226,227,212,186,164,147,118,110,116,130,128,119,110,99,86,75,65,38,4,-28,-30,-17,1,3,-3,-24,-65,-91,-99,-78,-77,-78,-67,-49,-57,-82,-101,-84,-69,-56,-41,-26,-26,-50,-63,-50,-53,-72,-101,-109,-104,-78,-56,-31,-23,-9,-6,-15,-17,-16,-13,-30,-71,-81,-52,-7,9,-24,-57,-83,-107,-102,-84,-50,-35,-31,-30,-31,-24,2,23,25,8,-7,-17,-34,-39,-11,28,42,29,16,12,9,-13,-34,-42,-27,-1,-7,-21,-30,-19,-8,-5,-18,-19,-19,-6,29,66,93,98,92,76,49,36,34,47,51,51,46,48,65,76,69,46,31,55,65,56,34,45,54,52,42,53,56,36,15,3,13,22,12,11,7,7,-5,-20,-9,2,8,-2,-21,-55,-76,-52,-6,12,-6,-17,-18,-33,-45,6,151,350,564,769,929,1016,970,799,555,305,141,35,-22,-54,-60,-40,-30,-35,-41,-45,-31,-25,-33,-63,-76,-68,-44,-29,-26,-9,12,29,22,3,-14,-37,-54,-55,-16,13,26,3,0,6,15,9,-6,-44,-77,-62,0,52,47,28,21,37,50,70,94,117,125,103,69,52,64,90,122,140,136,112,95,112,138,154,144,144,151,161,169,197,235,259,259,222,188,140,129,129,141,151,139,108,54,5,-21,-36,-55,-74,-79,-60,-35,-35,-55,-74,-72,-53,-39,-35,-42,-51,-48,-53,-66,-82,-69,-44,-23,-41,-70,-91,-93,-86,-87,-85,-85,-77,-57,-36,-32,-44,-54,-58,-59,-69,-61,-42,-26,-24,-41,-45,-49,-55,-49,-32,-12,-17,-31,-34,-38,-37,-18,-10,-23,-55,-76,-66,-46,-18,-7,-2,1,19,25,4,-21,-20,1,3,-19,-27,-14,-5,0,17,35,50,42,39,18,-13,-31,-10,34,55,39,7,-1,-1,-8,-23,-34,-7,24,45,30,30,53,79,64,35,33,64,104,133,121,105,80,72,65,60,71,79,72,46,23,4,-11,-11,2,18,6,-28,-47,-35,-3,20,14,7,0,-27,-71,-81,-44,16,56,56,37,0,-10,-21,-32,-31,6,81,208,394,622,828,966,990,870,652,397,179,12,-74,-101,-112,-107,-105,-67,-36,-13,-8,-16,-31,-44,-38,-48,-61,-65,-55,-55,-60,-35,2,23,13,-14,-28,-14,-5,-4,-15,-27,-63,-100,-85,-45,-2,16,20,34,38,41,25,19,22,36,41,50,73,84,76,50,31,23,25,50,89,115,96,78,92,153,209,218,198,168,156,141,155,194,229,226,197,187,173,140,92,53,31,31,53,76,68,52,36,39,29,18,12,-12,-58,-115,-136,-119,-83,-67,-79,-98,-102,-81,-90,-113,-152,-160,-131,-81,-41,-27,-26,-28,-40,-49,-58,-68,-63,-49,-41,-64,-102,-107,-101,-72,-55,-35,-29,-35,-19,-18,-39,-71,-83,-72,-63,-51,-41,-42,-55,-59,-48,-40,-42,-55,-52,-26,-5,-5,-31,-31,-24,-19,-31,-45,-22,-5,10,-9,-30,-47,-52,-48,-12,31,60,57,34,-2,-34,-47,-30,-28,-26,-13,8,34,37,34,25,26,38,46,45,59,61,62,29,31,49,86,91,78,60,42,35,32,41,55,57,31,10,8,32,55,59,49,22,-2,-33,-60,-64,-58,-38,-22,-14,-27,-46,-29,8,33,9,-15,-22,-4,-1,-21,-42,-47,-5,74,176,317,494,692,837,890,846,685,434,198,42,-42,-97,-138,-145,-148,-112,-63,-33,-30,-24,-9,-10,-40,-74,-77,-58,-13,0,15,22,20,4,-25,-55,-65,-55,-18,2,15,10,-12,-17,0,13,0,-3,7,0,-5,21,58,72,64,76,83,65,39,30,41,51,66,99,128,128,92,47,50,76,152,188,214,197,173,152,139,141,140,152,178,204,200,179,165,143,125,107,99,68,43,32,44,29,18,-11,-29,-45,-60,-69,-69,-51,-18,4,-2,-45,-95,-111,-91,-68,-44,-34,-30,-54,-77,-106,-116,-123,-110,-91,-69,-56,-55,-70,-69,-52,-39,-43,-42,-30,-20,-29,-45,-51,-34,-1,13,5,6,19,24,-5,-32,-43,-34,-25,-12,1,-15,-45,-65,-63,-46,-30,-26,-26,-8,4,-17,-37,4,64,61,4,-18,-20,-11,-12,2,12,8,-7,-9,-13,-18,-22,1,28,40,22,13,8,27,44,60,40,30,23,17,7,8,21,35,36,43,44,54,68,90,99,94,61,32,11,9,2,4,7,30,69,96,82,32,-31,-53,-67,-46,-42,-32,-33,-32,-39,-39,-28,-2,20,25,1,-30,-39,-16,0,5,-13,-20,-31,-29,6,106,268,438,595,754,882,922,825,637,419,219,81,-5,-63,-90,-83,-47,-39,-49,-64,-61,-50,-44,-38,-30,-1,10,7,-8,-32,-55,-68,-63,-50,-40,-18,-14,-12,-14,-3,5,12,34,55,72,58,35,6,-10,-12,0,17,34,42,34,13,2,26,57,78,73,64,79,108,118,94,57,53,78,110,143,166,181,175,163,162,179,188,197,186,181,161,163,166,175,169,145,131,123,125,113,103,85,51,4,-48,-63,-72,-39,-26,-42,-77,-102,-89,-65,-57,-57,-80,-78,-72,-70,-73,-62,-42,-43,-65,-93,-81,-55,-48,-66,-87,-84,-72,-48,-27,-56,-114,-150,-131,-98,-76,-49,-23,9,10,-17,-51,-67,-61,-44,-32,-17,-11,-15,-29,-45,-32,-20,-21,-47,-67,-77,-75,-61,-45,-23,-14,-10,-33,-49,-51,-19,11,27,21,10,-13,-26,-23,1,22,15,7,10,10,8,6,16,13,-10,-42,-68,-88,-58,-11,43,82,98,100,83,64,57,54,49,39,30,33,33,36,54,74,89,76,48,11,-10,-35,-58,-74,-52,-25,-4,4,-3,6,11,17,5,-8,1,11,24,17,17,14,7,-29,-71,-97,-82,-31,77,234,427,611,790,911,955,879,695,439,213,57,-28,-69,-53,-24,-12,-39,-55,-64,-61,-49,-46,-59,-77,-90,-58,-25,-10,-43,-45,-31,-10,-2,14,28,31,14,14,7,-3,-8,-14,-18,-14,-6,1,-4,-8,3,14,23,36,37,25,11,25,57,76,60,39,48,78,95,86,61,45,39,68,101,132,143,161,170,161,149,160,184,203,195,193,198,201,163,132,117,136,135,122,99,76,42,6,-15,-15,-18,-46,-70,-75,-76,-79,-88,-70,-61,-36,-44,-53,-56,-38,-37,-64,-99,-119,-107,-71,-50,-64,-93,-117,-134,-121,-94,-68,-67,-82,-85,-86,-79,-55,-49,-40,-65,-79,-70,-47,-20,-27,-34,-55,-66,-69,-60,-39,-28,-36,-58,-61,-39,-14,-32,-65,-89,-61,-17,34,13,-24,-43,-18,7,2,-18,-27,-26,-11,-19,-28,-31,-5,22,31,25,8,7,5,-10,-6,0,14,22,52,77,78,56,27,22,18,44,65,81,68,44,33,34,42,68,86,100,73,29,-30,-54,-30,10,22,-1,-39,-61,-49,-18,40,73,81,26,-26,-59,-40,-6,30,47,38,6,-30,-53,-62,-78,-56,10,160,346,544,723,890,970,928,747,541,340,184,69,-16,-77,-105,-102,-86,-88,-61,-36,-14,-14,-15,-31,-50,-57,-35,-18,-11,-7,-1,-2,0,-7,-15,-22,1,21,22,-22,-49,-39,-5,18,4,-18,-26,-7,48,54,44,25,41,50,40,31,28,19,38,63,92,105,126,138,128,97,97,97,96,88,122,159,169,147,159,181,199,184,180,188,201,203,208,200,181,144,97,65,53,95,117,116,89,44,-3,-51,-81,-102,-102,-72,-31,-20,-29,-49,-52,-46,-39,-59,-71,-66,-57,-57,-70,-62,-57,-73,-87,-67,-39,-44,-50,-44,-13,-20,-34,-54,-62,-77,-61,-50,-40,-47,-45,-51,-56,-48,-27,-19,-36,-41,-27,-9,2,2,11,1,-5,-17,-27,-52,-70,-71,-87,-87,-70,-43,-24,-32,-38,-39,-7,41,69,57,46,26,13,-1,-24,-29,-44,-32,-10,9,14,9,24,28,18,4,17,11,10,7,27,47,73,105,140,159,143,105,45,42,49,60,35,12,30,52,61,31,3,2,30,62,51,14,0,14,16,4,8,18,9,-9,-5,18,23,6,-17,-31,-28,-32,-34,-29,-15,-12,5,69,211,396,585,770,899,956,918,770,553,311,134,14,-44,-71,-72,-53,-33,-16,-14,1,26,25,17,2,9,-4,-32,-67,-78,-75,-57,-39,-17,-16,-28,-30,-1,32,46,21,-3,-23,-21,-26,-5,19,55,64,51,18,-15,-39,-22,7,42,39,39,26,25,28,24,30,66,109,153,159,141,109,102,144,186,189,179,167,164,171,174,177,176,190,208,211,197,183,181,165,132,99,87,99,107,106,82,42,7,-19,-57,-85,-102,-104,-111,-121,-87,-40,-5,-10,-32,-45,-68,-89,-78,-56,-55,-89,-109,-120,-114,-121,-92,-60,-19,-15,-14,-28,-30,-47,-65,-86,-88,-73,-48,-35,-23,-27,-41,-71,-107,-119,-79,-19,19,15,-15,-61,-93,-79,-54,-50,-57,-39,-21,-9,-20,-18,-23,-22,-21,-14,8,30,25,-9,-52,-71,-74,-49,-23,11,36,45,25,4,7,31,53,71,72,31,-22,-56,-22,21,48,62,96,125,109,50,-1,-24,3,46,69,62,46,39,17,-3,-7,3,11,5,-6,-26,-19,-10,4,-14,-27,-32,-32,-35,-24,8,34,27,-2,-16,-27,-60,-98,-52,90,281,465,625,776,868,869,763,563,354,160,22,-70,-124,-147,-151,-121,-68,-18,5,10,7,-17,-59,-102,-91,-57,-17,1,3,-3,-10,1,17,27,7,-3,-10,4,22,40,37,6,-11,-6,-8,-27,-47,-34,-13,10,18,14,26,48,49,36,26,55,66,75,76,88,101,93,81,70,101,145,176,181,162,154,137,132,143,158,163,161,187,242,266,234,186,163,143,113,102,119,132,104,48,-22,-72,-72,-44,-23,-32,-48,-47,-45,-45,-62,-91,-104,-103,-84,-78,-90,-95,-76,-41,-27,-33,-47,-43,-46,-59,-88,-97,-74,-51,-37,-38,-27,-30,-48,-68,-70,-93,-94,-83,-42,-23,-12,-5,0,-26,-59,-78,-65,-21,9,22,17,7,-15,-36,-35,-31,-41,-59,-61,-60,-46,-6,24,26,10,-6,-12,-29,-23,-11,14,32,38,22,3,-5,0,-3,-6,-10,0,-9,-11,-10,3,18,42,50,19,2,24,59,64,48,45,39,25,26,47,78,96,97,73,48,21,4,-5,1,22,24,18,10,-2,-29,-52,-46,-27,-8,2,-12,-38,-38,-14,3,9,13,19,14,-1,-16,-44,-68,-74,-61,-25,61,205,394,574,732,842,863,785,624,435,237,68,-70,-140,-148,-139,-92,-40,20,30,19,2,-22,-63,-78,-67,-39,-29,-21,-22,-32,-44,-38,-26,-26,-29,0,32,25,-16,-56,-68,-68,-46,-10,15,24,17,29,27,15,9,18,42,43,45,45,53,71,79,83,64,52,50,59,57,58,47,52,81,116,143,137,117,132,153,193,194,184,172,168,164,159,167,173,149,124,116,129,136,113,82,39,13,-14,-58,-87,-94,-71,-70,-70,-73,-54,-59,-83,-117,-147,-124,-95,-48,-31,-37,-56,-70,-69,-47,-41,-34,-44,-66,-100,-121,-92,-42,-14,-26,-48,-57,-64,-65,-50,-55,-53,-42,-21,-35,-72,-97,-79,-41,-7,-7,-20,-32,-22,-33,-51,-68,-60,-32,-8,-9,-9,-24,-39,-57,-63,-46,-26,-4,3,11,16,31,37,44,42,48,59,47,33,10,21,14,2,-19,-18,-16,-14,-23,-28,-24,7,56,85,86,87,92,80,70,70,81,83,70,51,34,20,11,-4,-13,-23,-34,-34,-2,28,32,21,14,19,1,-36,-58,-58,-45,-15,23,68,75,50,30,-10,-43,-74,-61,-1,122,306,528,733,889,933,871,714,521,326,160,59,0,-30,-54,-67,-83,-85,-70,-37,1,21,9,-26,-56,-60,-45,-32,-19,-31,-34,-33,-22,-16,-10,1,4,-2,-17,-21,-20,-10,-22,-34,-39,-15,20,42,54,68,77,66,26,-1,0,28,55,76,81,70,61,70,98,97,67,51,64,87,106,141,188,199,189,167,135,130,155,213,246,232,207,176,170,175,170,147,123,86,49,40,53,64,53,24,5,-23,-34,-63,-90,-106,-106,-94,-57,-24,-10,-33,-56,-61,-66,-83,-114,-129,-120,-77,-38,-10,-22,-36,-51,-60,-72,-80,-73,-67,-55,-56,-61,-47,-21,9,9,-17,-60,-103,-126,-120,-84,-41,-9,2,3,-28,-67,-96,-91,-77,-37,11,48,20,-35,-61,-37,-1,10,9,3,-3,-20,-44,-61,-51,-26,-18,-24,-23,-9,7,17,22,24,38,51,35,2,-6,24,41,25,-13,-23,0,25,37,46,66,95,105,94,72,56,48,46,53,73,72,42,24,13,17,11,8,2,-8,-25,-36,-40,-18,16,32,18,-3,-23,-23,-3,44,58,38,-7,-31,-43,-47,-47,-58,-55,-30,51,213,431,657,836,941,959,858,657,442,235,78,-38,-96,-108,-87,-51,-12,-8,-22,-33,-34,-18,-24,-57,-84,-85,-61,-45,-25,7,20,-5,-52,-59,-31,-7,-18,-23,-14,4,-14,-32,-26,4,31,20,7,-4,2,-1,1,15,49,76,78,57,29,6,-11,-8,14,49,89,113,147,165,162,113,92,102,149,168,164,154,152,163,179,194,211,213,206,181,152,134,133,141,131,111,97,78,45,6,-10,1,9,-9,-28,-33,-37,-52,-87,-99,-91,-82,-98,-109,-94,-65,-52,-55,-48,-61,-77,-81,-67,-51,-29,-12,-9,-39,-78,-95,-88,-75,-79,-89,-73,-75,-64,-61,-53,-57,-64,-63,-74,-90,-89,-64,-43,-25,-10,10,21,36,22,-13,-70,-104,-87,-65,-48,-33,7,34,34,-2,-27,-45,-55,-62,-52,-26,-10,0,7,16,0,-41,-57,-32,8,44,63,77,75,70,66,43,11,-3,-2,18,27,38,26,34,68,109,122,94,63,44,45,50,30,11,0,14,39,47,37,1,-18,5,41,48,15,-22,-39,-37,-25,-17,-7,-7,-10,-29,-31,-29,-4,-1,-2,-11,-22,-23,-25,-1,51,155,299,469,641,818,938,957,835,610,375,168,29,-66,-108,-105,-97,-66,-21,14,1,-55,-88,-93,-58,-34,-5,8,22,10,-10,-38,-53,-57,-45,-18,-5,-18,-34,-39,-30,-22,-17,3,12,1,-4,-2,15,13,5,4,11,32,41,50,38,32,27,31,42,56,72,81,90,103,123,134,136,118,111,107,107,102,138,191,236,234,205,170,156,183,219,218,189,150,131,112,108,103,105,97,74,30,4,3,8,-14,-49,-65,-77,-84,-86,-79,-71,-55,-41,-50,-87,-118,-105,-87,-69,-57,-36,-38,-63,-76,-89,-88,-75,-45,-15,-2,-8,-33,-61,-55,-35,-17,-48,-78,-91,-79,-72,-79,-75,-79,-71,-51,-35,-51,-62,-62,-73,-72,-46,-2,-18,-51,-63,-45,-41,-57,-51,-26,2,7,-4,-7,-3,-1,4,4,-7,-27,-32,-34,-39,-49,-26,-4,16,9,9,6,2,-4,-5,-9,-9,4,33,55,70,74,77,51,30,11,30,60,92,102,98,79,59,43,37,29,26,30,44,40,21,1,6,28,44,28,5,-19,-17,-11,-2,13,24,12,-20,-47,-35,-6,12,26,11,4,-5,-16,-47,-74,-53,10,118,272,478,683,859,950,921,760,543,321,123,-22,-115,-137,-120,-101,-79,-100,-98,-97,-51,-8,8,4,-9,-2,-12,-24,-29,-29,-13,0,21,22,7,-23,-27,-26,-22,-41,-50,-38,-14,10,21,29,25,10,-17,-35,-34,1,44,77,82,62,47,42,40,18,-3,6,48,71,85,106,150,168,168,157,170,163,183,197,227,213,179,147,151,187,208,200,167,160,171,169,152,128,102,86,69,63,63,55,55,21,-35,-84,-96,-90,-93,-104,-98,-90,-92,-80,-61,-55,-68,-84,-84,-96,-99,-93,-83,-73,-59,-46,-34,-32,-35,-53,-63,-76,-79,-82,-78,-102,-133,-139,-91,-34,0,-12,-45,-70,-84,-85,-80,-74,-72,-56,-33,-15,-17,-34,-18,-7,2,-20,-42,-47,-48,-64,-90,-87,-31,22,40,12,-17,-32,-36,-34,-32,-27,-34,-37,-33,-22,-14,-7,20,35,25,-5,-9,6,26,21,18,25,43,40,40,43,56,52,40,28,29,32,30,14,-11,-12,13,53,67,45,7,-3,12,35,32,26,0,-37,-40,-20,9,10,20,30,30,-4,-20,-23,-8,4,14,-5,-39,-63,-28,9,13,-14,-8,67,233,409,600,753,891,915,825,631,410,222,75,-34,-110,-140,-113,-70,-25,-24,-37,-50,-52,-46,-39,-50,-50,-52,-42,-54,-58,-42,-12,13,26,24,-6,-38,-25,0,23,8,6,8,7,8,5,6,-2,-2,-13,-12,-8,1,-3,8,34,60,76,86,97,92,76,50,40,45,98,152,193,184,155,116,108,125,136,130,139,169,188,162,146,154,183,197,176,146,143,153,131,94,73,58,40,10,1,-26,-40,-42,-25,-20,-33,-48,-70,-100,-132,-141,-98,-59,-47,-72,-78,-51,-17,-40,-87,-119,-106,-92,-84,-69,-48,-62,-86,-93,-81,-64,-48,-38,-49,-85,-102,-77,-43,-27,-28,-56,-69,-70,-35,-8,-10,-42,-68,-79,-58,-36,-13,-6,-13,-18,-15,-6,2,8,5,-23,-53,-68,-65,-51,-18,27,62,67,50,19,-20,-56,-68,-59,-30,-15,-8,-13,-9,8,19,20,13,17,32,34,39,33,41,43,47,46,46,59,61,64,64,60,59,42,39,15,12,32,78,92,68,19,-11,-18,-1,16,22,32,41,53,43,10,-18,-31,-17,-21,-25,-28,-8,-4,-6,-13,-10,-27,-65,-130,-125,-42,126,326,523,696,820,892,893,798,627,421,238,87,-22,-88,-107,-90,-70,-41,-28,-14,-27,-46,-60,-59,-37,-19,-2,9,-8,-46,-82,-76,-47,-19,-14,-30,-24,0,30,20,3,-9,7,15,20,0,-25,-32,-10,10,21,5,4,0,19,14,14,18,43,67,77,76,92,112,124,101,79,74,89,101,134,155,155,121,110,124,157,183,195,189,172,166,168,173,163,162,151,130,89,41,30,44,74,71,32,-27,-77,-101,-99,-81,-71,-75,-87,-99,-94,-81,-68,-60,-70,-78,-70,-43,-28,-32,-52,-69,-88,-95,-73,-47,-36,-70,-102,-106,-83,-68,-72,-68,-66,-79,-96,-88,-58,-31,-27,-26,-48,-72,-103,-110,-89,-51,-18,-11,-4,-2,-8,-32,-48,-55,-48,-50,-49,-36,-20,-2,0,-6,-16,-18,-4,6,2,-7,-5,9,5,-18,-32,-19,19,20,8,0,25,37,34,27,45,56,64,60,60,62,66,64,67,60,61,58,69,81,89,88,89,86,76,56,45,43,42,28,29,40,41,21,-3,-18,-16,-12,-19,-47,-69,-71,-56,-28,11,25,22,13,16,1,-20,-25,-1,3,0,25,111,261,450,673,872,974,949,781,565,321,145,1,-75,-114,-111,-91,-80,-68,-51,-39,-42,-78,-91,-97,-70,-39,2,17,1,-27,-41,-46,-66,-89,-88,-64,-40,-26,-5,13,29,23,18,0,-19,-35,-17,4,21,15,17,14,-11,-28,-14,34,75,60,32,22,52,80,100,141,167,154,121,112,123,119,109,103,114,130,158,181,193,190,193,199,194,171,134,116,139,175,203,188,171,151,124,73,6,-44,-68,-65,-36,-14,-10,-36,-41,-42,-58,-88,-104,-107,-95,-91,-78,-72,-48,-13,3,-26,-68,-91,-81,-65,-61,-83,-133,-151,-116,-36,28,42,19,-13,-49,-61,-62,-46,-31,-30,-33,-58,-74,-71,-48,-26,-30,-28,-36,-42,-57,-65,-85,-103,-79,-30,0,-17,-29,-32,-10,14,28,11,-10,-7,8,5,-11,-23,-30,-24,-26,-45,-59,-33,25,57,61,54,62,30,-14,-43,-17,33,80,101,88,42,7,0,10,17,32,46,52,52,58,65,56,28,16,33,58,73,63,54,23,-9,-14,12,51,56,40,-15,-63,-83,-47,5,19,14,4,13,6,-3,-9,-19,-27,-28,-13,-33,-64,-79,-45,30,146,313,523,730,891,950,919,814,651,438,235,82,-15,-76,-107,-108,-86,-74,-66,-89,-89,-60,-20,11,12,-4,-31,-44,-44,-62,-67,-48,-9,-5,-22,-33,-24,-19,-10,1,-2,-48,-97,-93,-32,26,42,19,3,7,17,25,7,4,22,60,69,38,5,-1,12,42,90,132,135,104,88,88,94,104,147,178,190,175,162,153,162,197,226,199,161,138,144,156,166,175,183,184,177,133,78,19,1,-5,-16,-44,-51,-38,-41,-56,-78,-86,-106,-109,-106,-91,-64,-52,-44,-47,-42,-52,-73,-66,-47,-35,-45,-68,-74,-74,-57,-55,-70,-77,-69,-56,-43,-43,-36,-63,-70,-68,-55,-72,-77,-50,-12,-6,-33,-57,-65,-70,-62,-42,-19,-34,-57,-75,-64,-58,-42,-45,-47,-37,-5,17,13,-1,-9,-14,-21,-34,-25,19,62,58,13,-31,-56,-67,-47,-22,11,15,24,37,55,41,-2,-45,-25,31,71,61,14,9,36,87,116,107,85,60,66,71,70,43,34,55,74,67,38,44,62,57,27,17,24,31,24,3,-13,-37,-50,-34,-18,8,7,-2,-10,-18,-10,-4,-9,-35,-49,-28,14,24,23,18,19,10,41,137,300,487,662,822,947,978,875,650,392,169,22,-62,-93,-88,-66,-49,-45,-38,-30,-38,-42,-45,-28,-15,-9,-19,-33,-41,-31,-24,-6,-2,0,-21,-44,-53,-30,1,28,8,-30,-65,-66,-49,-32,-17,5,37,56,53,30,20,27,27,12,-16,3,54,115,139,122,94,63,47,56,62,83,112,150,170,170,165,168,180,213,228,232,233,244,240,217,185,171,173,184,172,148,118,96,89,79,56,20,6,3,1,-12,-34,-52,-66,-76,-95,-101,-86,-67,-71,-69,-61,-41,-37,-39,-53,-55,-59,-61,-76,-80,-73,-59,-64,-53,-49,-20,-14,-17,-54,-82,-88,-63,-36,-57,-75,-68,-37,-12,-34,-51,-73,-78,-72,-38,-23,-11,-16,-8,-15,-41,-55,-54,-34,-19,-12,-6,-13,-24,-22,-3,6,-5,-27,-11,17,29,1,-35,-65,-68,-66,-43,-19,12,26,26,-7,-24,-32,-8,9,23,35,54,56,32,0,1,25,61,62,63,60,68,63,54,48,51,58,57,47,36,34,44,57,61,54,35,33,27,29,24,7,-11,-13,5,20,12,-7,-36,-54,-53,-28,-13,-16,-10,-18,-37,-58,-33,-9,-6,-13,16,93,207,359,539,716,856,914,850,664,395,156,8,-48,-75,-91,-87,-79,-66,-61,-49,-48,-54,-47,-27,0,29,36,28,-1,-24,-51,-64,-70,-64,-60,-52,-36,-15,1,18,13,3,-15,-24,-17,4,25,29,13,15,42,60,51,38,39,37,7,-9,-2,43,68,96,97,92,85,95,108,105,106,117,130,141,159,168,161,153,175,202,220,213,201,198,191,168,150,134,140,131,120,102,79,62,60,38,4,-40,-70,-84,-85,-78,-55,-27,-4,-9,-34,-59,-78,-103,-126,-118,-85,-45,-41,-54,-65,-70,-76,-72,-63,-63,-77,-83,-73,-64,-58,-39,-36,-36,-46,-39,-44,-51,-61,-78,-86,-84,-63,-60,-55,-31,-4,10,-4,-29,-53,-60,-54,-51,-33,-4,16,15,2,-10,-41,-61,-51,-26,-14,-12,0,10,4,-1,-10,-19,-34,-36,-30,-11,-8,8,7,12,14,12,20,38,46,29,3,-6,-1,5,12,23,29,32,9,-11,-10,14,24,30,18,27,33,57,73,71,60,37,21,20,24,57,78,85,52,20,5,10,9,-10,-25,-42,-31,-29,-8,16,35,37,20,-1,-16,-20,-12,10,11,2,-26,-40,-49,-55,-72,-67,-37,12,87,214,398,608,798,932,944,830,620,394,185,38,-60,-108,-128,-114,-91,-59,-35,-25,-35,-62,-81,-73,-32,-5,-7,-43,-86,-85,-52,13,37,38,14,-6,-27,-33,-39,-27,-8,16,28,18,-15,-40,-48,-22,-1,11,18,28,30,15,7,8,35,66,78,75,53,54,64,79,73,71,70,74,67,76,107,134,148,170,179,176,158,174,188,206,213,226,217,191,173,166,146,114,77,64,57,48,34,26,6,-18,-58,-97,-104,-91,-58,-61,-75,-70,-61,-67,-90,-96,-86,-79,-75,-61,-40,-31,-40,-57,-61,-50,-55,-75,-87,-77,-64,-70,-88,-114,-133,-130,-113,-90,-62,-29,3,26,4,-35,-75,-65,-30,-3,-10,-35,-58,-50,-52,-50,-61,-49,-31,-13,-8,-14,-7,-4,-14,-38,-47,-29,-8,8,22,25,19,-6,-31,-34,-31,-5,14,19,16,11,16,15,5,-13,-44,-65,-67,-49,-20,21,68,91,94,81,78,56,28,13,11,22,26,47,55,60,66,76,66,43,31,36,50,42,12,-13,-27,4,34,65,43,9,-6,11,35,28,14,14,-10,-44,-71,-47,-8,17,34,32,12,-17,-46,-59,-73,-65,-30,44,178,364,564,753,903,980,926,737,497,268,85,-25,-91,-100,-90,-61,-31,-17,-21,-46,-89,-107,-107,-96,-89,-69,-13,28,26,-3,-16,-8,-17,-26,-42,-46,-56,-50,-42,-15,-1,14,-5,3,11,25,3,-18,-26,-8,17,45,51,29,-14,-26,-13,20,39,50,47,60,79,95,106,114,122,122,128,135,140,152,166,179,178,191,208,208,198,180,175,170,169,159,150,149,140,106,72,68,88,82,46,4,-26,-46,-59,-58,-50,-51,-78,-96,-101,-87,-83,-83,-93,-103,-115,-99,-79,-39,-11,-6,-16,-43,-73,-112,-121,-91,-60,-36,-51,-61,-63,-54,-49,-49,-50,-69,-105,-115,-90,-39,-12,-13,-39,-55,-68,-66,-70,-50,-27,5,0,-29,-54,-64,-66,-74,-62,-32,-5,7,6,9,0,-17,-30,-13,14,28,28,26,18,0,-19,-27,-36,-43,-39,-17,-11,-1,5,24,18,3,-6,6,35,60,64,41,44,65,90,82,59,48,42,39,34,37,44,65,71,58,28,15,15,32,60,83,74,46,18,8,9,7,2,-13,-24,-27,-20,-19,-28,-40,-37,-22,-6,11,18,28,24,13,-3,-6,-12,-24,-48,-57,-47,-7,93,280,514,719,862,918,912,787,582,363,192,82,-13,-87,-109,-74,-44,-53,-71,-54,-8,0,-12,-16,-13,-12,-20,-26,-53,-99,-122,-89,-39,13,34,32,-1,-33,-53,-55,-56,-58,-32,7,38,20,-13,-13,11,31,18,-3,-12,10,44,55,33,22,6,8,7,36,86,139,162,140,98,78,94,131,151,162,153,155,162,179,188,187,184,184,204,211,195,173,170,165,134,91,94,118,125,110,67,25,-3,-1,-10,-38,-67,-64,-57,-78,-118,-134,-115,-66,-42,-43,-51,-60,-56,-50,-47,-31,-10,8,5,-25,-74,-110,-136,-112,-79,-46,-37,-37,-39,-48,-66,-78,-59,-24,-7,-5,-47,-68,-88,-71,-57,-59,-66,-57,-27,-12,-40,-77,-91,-63,-32,-16,-27,-38,-57,-52,-29,7,22,15,13,19,6,-9,-25,-33,-48,-54,-46,-36,-33,-22,-6,16,10,3,8,51,66,52,3,-21,-34,-38,-44,-22,7,34,48,61,62,50,33,14,15,25,60,65,52,65,112,145,113,66,60,85,93,82,77,67,49,31,13,6,-6,-1,-10,-19,-26,-14,0,1,0,-8,-20,-39,-32,1,33,43,25,8,8,16,3,-11,-23,-19,-34,-49,-5,143,367,588,758,870,920,883,757,575,362,185,39,-44,-87,-88,-74,-59,-27,-15,-17,-30,-22,-8,-14,-27,-36,-35,-51,-60,-63,-54,-70,-79,-61,-22,-2,12,28,44,16,-14,-23,0,27,49,61,59,22,-23,-45,-44,-40,-31,-4,33,39,36,31,57,72,72,53,62,88,102,94,91,112,128,138,128,114,101,101,137,184,218,223,258,290,295,250,205,183,166,146,121,119,131,115,62,8,-15,-16,-14,-2,-21,-56,-85,-95,-81,-79,-78,-76,-61,-66,-94,-114,-84,-48,-39,-62,-48,-40,-46,-85,-133,-140,-121,-79,-63,-70,-90,-90,-71,-30,-8,-16,-28,-28,-20,-13,-35,-75,-99,-94,-79,-93,-110,-113,-83,-45,-30,-46,-56,-41,-16,-2,5,-9,-28,-51,-35,-7,3,-16,-32,-21,-1,-6,-26,-58,-55,-22,18,13,4,9,21,24,27,34,13,-20,-40,-35,-28,-27,-16,3,25,36,29,14,0,4,16,33,52,57,41,28,43,77,95,82,72,77,86,75,50,24,26,45,67,47,30,38,55,51,18,-18,-38,-27,-5,25,30,22,-9,-43,-33,2,40,51,53,47,39,7,-25,-56,-49,-34,-34,-64,-81,-86,-78,-34,93,286,480,622,748,868,905,811,587,348,157,36,-37,-95,-120,-104,-76,-56,-56,-32,-5,10,-18,-57,-83,-77,-51,-27,-16,-31,-62,-63,-31,10,19,9,8,-4,1,-1,9,-2,-18,-17,-3,22,23,7,-8,-15,-3,20,59,101,120,98,44,22,28,45,67,98,121,111,79,68,71,78,74,73,102,139,176,189,188,175,172,165,166,177,208,240,236,225,189,156,135,127,106,73,49,44,28,6,-1,-7,-34,-53,-47,-18,-10,-33,-59,-87,-120,-139,-121,-90,-59,-65,-78,-105,-106,-97,-82,-67,-33,-1,1,-22,-65,-94,-113,-93,-78,-70,-78,-74,-70,-71,-76,-68,-53,-46,-31,-35,-41,-56,-66,-78,-71,-44,-26,-28,-34,-23,-23,-42,-49,-42,-23,-27,-26,-21,-18,-46,-87,-95,-57,-6,21,12,-16,-35,-34,-8,13,33,44,32,6,-31,-49,-33,-5,6,-5,-5,0,4,18,25,29,21,19,18,13,-3,-9,1,23,29,33,51,72,75,68,63,69,57,40,27,37,35,26,13,28,44,61,57,37,8,-2,6,26,27,7,-11,-15,-30,-45,-61,-45,-9,28,38,22,1,3,3,-1,-18,-40,-37,-32,-18,27,123,269,430,604,777,887,880,752,552,334,144,8,-74,-111,-123,-114,-87,-65,-40,-27,-9,10,-10,-29,-49,-41,-47,-31,-7,1,-18,-44,-54,-54,-34,-18,-16,-47,-62,-49,-17,10,20,21,8,-5,-15,-4,8,24,24,24,25,31,46,51,56,53,53,51,45,50,59,62,84,93,97,86,84,105,110,109,84,88,137,199,224,203,191,209,239,238,221,183,157,133,135,140,138,132,123,86,26,-18,-42,-52,-67,-43,-10,0,-24,-45,-64,-76,-88,-84,-77,-68,-74,-87,-92,-76,-76,-82,-91,-66,-34,-8,-29,-68,-92,-76,-86,-115,-129,-78,-30,-12,-34,-39,-40,-46,-64,-77,-70,-47,-25,-28,-58,-83,-84,-53,-39,-21,-22,-18,-34,-52,-65,-57,-35,-10,-8,-21,-44,-59,-42,-11,0,-30,-37,-21,5,13,10,9,-2,-10,-3,-9,-8,2,23,38,24,8,-12,-34,-55,-55,-32,-12,5,15,27,39,56,72,77,68,57,46,33,32,35,35,38,49,53,44,24,29,29,40,22,-8,-8,13,53,55,56,76,75,47,-8,-44,-66,-52,-33,-9,-27,-41,-38,-17,12,37,35,12,-18,-25,-34,-35,-21,10,70,182,359,556,729,863,924,899,758,527,268,57,-58,-99,-97,-60,-25,-12,-37,-64,-83,-78,-46,3,38,30,-9,-28,-36,-42,-51,-59,-58,-59,-54,-41,-14,15,40,42,17,8,-4,4,0,-3,-14,-21,-19,-5,15,27,39,54,53,45,22,27,46,50,30,14,1,27,68,116,135,132,137,140,145,149,155,146,141,153,182,192,189,189,181,180,167,158,159,158,155,135,106,82,67,65,58,32,6,-8,-27,-37,-52,-60,-66,-50,-34,-38,-66,-73,-54,-29,-53,-89,-106,-85,-72,-79,-74,-59,-36,-36,-52,-74,-82,-77,-48,-34,-19,-17,-25,-31,-29,-27,-55,-101,-122,-119,-100,-89,-62,-36,-10,-19,-45,-79,-97,-98,-78,-63,-48,-27,13,50,49,18,-19,-32,-45,-49,-39,-9,22,22,18,7,2,-15,-26,-38,-37,-39,-28,-11,9,28,41,33,7,-11,-22,-12,-16,-3,0,10,22,35,39,31,33,43,58,75,80,64,31,27,46,83,101,112,97,76,62,54,25,-3,-6,30,43,22,-25,-48,-38,-17,-13,-25,-18,9,29,30,21,12,5,-6,-13,-8,7,15,14,-1,-17,-45,-62,-45,-16,32,128,314,541,760,925,1011,974,805,553,302,111,14,-11,-22,-40,-66,-70,-71,-69,-56,-33,-18,-22,-37,-70,-89,-99,-74,-49,-12,4,1,-27,-57,-86,-79,-48,-4,12,18,40,59,57,20,-4,-23,-22,-7,5,19,15,27,38,30,10,-2,8,29,42,57,56,47,31,50,89,120,141,167,189,173,133,120,126,155,190,219,186,136,127,167,197,202,189,184,166,158,159,159,146,104,71,36,5,-13,-36,-31,-19,-8,-24,-45,-35,-22,-54,-96,-133,-131,-106,-77,-65,-60,-51,-32,-8,-13,-47,-83,-92,-94,-108,-93,-54,-12,-9,-20,-32,-47,-65,-80,-75,-50,-43,-45,-59,-64,-53,-47,-51,-54,-46,-40,-54,-57,-49,-62,-98,-105,-70,-33,-23,-37,-43,-41,-24,-7,2,-10,-15,-13,-14,-22,-21,3,21,18,5,-10,-30,-35,-33,-38,-31,-14,5,-10,-23,-14,3,15,18,23,35,42,39,35,32,38,43,70,80,75,61,62,67,45,27,28,47,60,31,7,9,35,59,71,82,78,54,33,13,22,48,78,57,8,-16,2,21,4,-39,-70,-76,-45,-7,31,27,4,-25,-44,-54,-52,-24,3,13,19,46,131,274,469,664,845,956,967,852,638,380,140,0,-45,-44,-35,-39,-33,-46,-48,-38,-19,-18,-37,-56,-53,-32,-22,-23,-16,1,8,-14,-31,-42,-41,-35,-21,-8,3,19,27,2,-25,-42,-33,-22,-10,12,19,12,-8,-18,4,29,54,58,62,62,50,28,19,0,18,52,127,177,197,184,161,127,112,107,120,141,177,189,187,188,212,213,178,135,129,132,153,161,186,189,189,153,90,27,-11,-11,-16,-21,-38,-61,-69,-53,-37,-53,-72,-77,-63,-51,-44,-38,-32,-50,-79,-96,-85,-78,-77,-58,-18,-11,-44,-91,-111,-106,-81,-44,-22,-4,0,-4,-32,-65,-56,-37,-36,-69,-92,-91,-77,-72,-71,-50,-21,-8,-47,-85,-88,-48,-3,9,-11,-45,-51,-24,10,12,-9,-33,-33,-28,-25,-25,-18,-10,-27,-27,-17,23,21,-7,-60,-68,-41,-6,12,24,39,34,18,13,7,2,8,25,45,47,41,37,53,83,80,57,31,35,39,38,26,41,58,86,89,86,75,63,54,43,35,22,8,0,1,5,-4,-17,-21,-23,-10,7,14,-1,-17,-15,-3,-1,6,16,21,1,-16,-18,-9,-22,-72,-96,-58,59,209,386,580,769,897,926,844,662,446,232,83,-5,-55,-99,-122,-115,-75,-51,-37,-30,-22,-31,-42,-57,-46,-39,-37,-32,-17,2,-9,-22,-16,4,-5,-38,-55,-19,22,30,0,-15,4,37,49,23,-29,-50,-38,-8,14,38,58,54,40,26,46,75,107,108,92,86,82,55,29,33,83,136,151,157,173,194,199,175,169,187,213,203,178,154,157,172,192,195,192,183,182,151,116,91,68,43,11,-7,-8,-3,-10,-32,-34,-27,-20,-41,-41,-70,-115,-168,-137,-76,-30,-45,-54,-53,-45,-55,-63,-61,-31,-15,-25,-56,-82,-83,-64,-48,-47,-61,-62,-50,-51,-60,-57,-46,-45,-79,-107,-111,-100,-88,-51,11,58,53,28,-3,-38,-64,-49,-29,-26,-43,-45,-43,-36,-30,-25,-28,-15,9,8,-2,0,13,7,-17,-25,-31,-34,-38,-18,15,35,26,-4,-31,-33,-21,-11,-16,1,38,74,70,60,72,88,90,60,24,-16,-23,-16,12,40,58,84,82,73,44,27,21,3,-18,-37,-40,-18,-1,21,40,54,51,11,-37,-52,-38,15,23,-1,-44,-34,6,38,20,-6,-27,-19,-14,19,101,272,485,690,835,898,861,734,541,328,123,-41,-130,-141,-114,-85,-71,-67,-79,-99,-83,-39,-3,13,12,28,34,26,9,0,-16,-10,-6,13,8,-9,-15,-15,-11,-30,-51,-36,-15,8,2,-5,4,21,32,19,13,24,32,18,23,43,71,80,82,76,49,25,29,58,81,76,71,72,70,69,72,117,173,200,201,186,177,167,152,155,163,196,229,244,217,159,95,48,39,15,2,-2,10,17,6,-10,-33,-57,-76,-86,-84,-78,-76,-69,-64,-51,-53,-47,-58,-86,-111,-136,-130,-96,-65,-46,-53,-41,-37,-53,-82,-97,-97,-97,-87,-71,-52,-32,-21,-14,-35,-65,-96,-106,-94,-71,-42,-31,-26,-38,-48,-58,-92,-95,-82,-32,-8,4,5,-7,-20,-15,7,-1,-48,-86,-69,-16,19,16,1,-3,-5,-34,-62,-69,-43,-12,14,23,17,6,-13,-23,-36,-17,3,36,50,67,72,81,58,2,-50,-58,-11,33,57,68,76,68,52,52,65,63,45,36,35,34,19,27,36,38,13,-13,-44,-79,-92,-90,-50,-19,19,31,26,5,-10,-8,-4,9,18,24,1,-31,-23,21,103,220,380,556,717,845,899,843,680,455,231,57,-53,-109,-127,-121,-99,-57,-30,-17,-29,-14,0,2,-14,-19,-19,-26,-47,-63,-60,-50,-30,-34,-41,-39,-23,-10,-4,1,14,5,-32,-79,-81,-38,7,22,25,37,41,42,28,12,3,27,58,71,48,17,10,36,83,115,118,97,89,89,99,84,75,76,103,146,188,195,169,136,150,170,181,170,177,186,193,185,177,144,113,83,55,18,-12,-24,-25,-19,-29,-35,-50,-57,-63,-55,-44,-44,-69,-79,-72,-59,-64,-79,-85,-72,-53,-29,-24,-21,-46,-74,-120,-144,-131,-82,-42,-33,-28,-18,-17,-29,-63,-81,-93,-79,-53,-40,-37,-30,-8,13,4,-29,-53,-44,-30,-44,-55,-41,-3,5,-12,-33,-49,-46,-51,-55,-54,-33,0,17,7,-2,5,25,34,17,-25,-38,-22,28,53,58,40,21,0,-7,-8,15,44,61,45,20,-3,-3,-1,10,17,14,28,73,129,145,109,53,7,-24,-9,20,56,66,54,32,13,14,24,34,25,7,-19,-31,-19,2,0,-19,-49,-42,-34,-11,-15,2,20,41,43,14,-17,-31,26,144,302,481,662,833,939,964,852,646,391,180,27,-53,-87,-93,-89,-69,-57,-55,-47,-19,21,24,12,-18,-19,-5,9,3,-24,-47,-70,-72,-63,-54,-56,-60,-43,-22,-11,-15,-8,2,3,-4,-12,-4,12,30,22,27,40,52,30,10,8,38,65,95,114,102,79,59,63,72,82,102,130,139,141,116,74,55,74,133,189,238,270,264,233,191,180,184,200,209,211,187,144,84,44,20,10,-3,-18,-30,-38,-39,-40,-40,-65,-86,-108,-103,-87,-60,-42,-14,0,-6,-42,-92,-107,-108,-89,-67,-42,-28,-48,-73,-98,-78,-35,-4,-1,-30,-43,-56,-68,-78,-78,-65,-67,-72,-77,-52,-23,-6,-15,-18,-18,-12,-24,-27,-34,-22,-23,-33,-55,-57,-48,-42,-26,0,6,-2,-7,-14,-39,-67,-55,-15,19,36,50,57,49,34,26,-1,-24,-39,-28,-11,11,13,4,-13,-9,8,34,59,64,56,51,38,20,9,28,69,106,126,116,98,59,42,43,66,92,81,39,-1,-7,15,11,2,0,-5,-17,-32,-26,0,32,54,47,29,35,34,14,-25,-29,-1,5,2,-25,-18,-39,-55,-88,-78,-18,103,267,437,609,788,964,1048,992,789,513,259,69,-31,-82,-95,-92,-96,-87,-63,-33,-11,-20,-43,-63,-47,-40,-28,-14,22,43,41,23,4,-15,-30,-34,-28,-19,-14,-13,-5"
