1.0890575810166094
1.0849962522264844
1.0758895093631269
1.0617441442419793
1.0424434197766863
1.018313909613851
0.9897316807682114
0.9570691938745807
0.9206953031878443
0.8809752565829599
0.8382706955549591
0.7929396552189457
0.7453365643100961
0.6958122451836602
0.6447139138149601
0.5923851797993922
0.5391660463524237
0.4853929103095961
0.4313985621265235
0.3775121858788928
0.32405935926246343
0.271362053593068
0.21973863380661252
0.1695038584590749
0.12096887972650583
0.0744357983910387
0.030070326468385145
-0.012061158702514396
-0.051896370363667566
-0.08938262689303517
-0.12447685180453161
-0.1571455737480251
-0.1873649265093371
-0.21512064901024272
-0.24040808530847066
-0.2632321845977032
-0.28360750120757616
-0.3015581946036786
-0.31711802938755385
-0.33033037529669806
-0.34124820720456117
-0.349934105120547
-0.35646025419001237
-0.3609084446942681
-0.3633700720505782
-0.3639461368121606
-0.36274724466818664
-0.35989360644378077
-0.35551503810002194
-0.34975096073394174
-0.3427504005785256
-0.33467198900271306
-0.3256839625113962
-0.3159641627454213
-0.3057000364815884
-0.2950766612433532
-0.28419374146693976
-0.27313446797209867
-0.26198080197045825
-0.250809547615856
-0.23969235200433883
-0.22869570517416274
-0.21788094010579315
-0.20730423272190462
-0.19701660188738113
-0.18706390940931586
-0.1774868600370113
-0.16832100146197918
-0.15959672431794045
-0.1513392621808255
-0.14356869156877394
-0.13629993194213452
-0.1295427457034653
-0.12330173819753382
-0.11757635771131675
-0.11236089547399991
-0.1076444856569786
-0.10341110537385723
-0.0996395746804497
-0.09630355657477907
-0.09337155699707755
-0.0908069248297868
-0.08856785189755773
-0.08660737296725035
-0.0848733657479343
-0.08330855089088812
-0.08185049198959993
-0.08044093136202801
-0.07912122824258983
-0.07790154266618382
-0.07677239360710619
-0.07572465992474081
-0.07474958036355939
-0.0738387535531217
-0.07298413800807513
-0.07217805212815503
-0.0714131741981846
-0.07068254238807486
-0.06997955475282469
-0.06929796923252085
-0.0686319036523379
-0.0679758357225384
-0.06732460303847243
-0.06667340308057829
-0.06601779321438206
-0.06535369069049729
-0.06467737264462597
-0.0639854760975575
-0.06327499795516928
-0.06254329500842665
-0.0617880839333827
-0.061007441291178244
-0.06019980352804222
-0.05936396697529128
-0.058499087849329945
-0.05760468225165044
-0.05668062616883318
-0.05572715547254603
-0.05474486591954503
-0.05373471315167394
-0.05269801269586433
-0.051636439964135694
-0.05055203025359528
-0.04944717874643839
-0.048320975356906826
-0.047166866214235714
-0.04598368611423004
-0.04477047591859362
-0.04352630015607967
-0.04225024702249092
-0.0409414283806791
-0.03959897976054538
-0.038222060359040355
-0.03680985304016393
-0.03536156433496501
-0.03387642444154221
-0.032353687225043226
-0.030792630217665318
-0.029192554618654665
-0.02755278529430716
-0.025872670777967732
-0.024151583270030752
-0.022388918637940014
-0.020584096416188413
-0.018736559806318165
-0.016845775676921138
-0.01491123456363802
-0.012932450669159212
-0.010908961863224209
-0.008840329682621995
-0.006726139331190595
-0.004565999679817689
-0.0023595432664401117
-0.00010642629604395992
0.0021936713593352364
0.004541046160612683
0.006935970901654376
0.009378694709276825
0.011869443043247385
0.01440841769628376
0.01699579679405483
0.019631734795179823
0.022316362491228703
0.025049787006722224
0.027832091799131597
0.030663336658878992
0.033543557709337146
0.036472767406829476
0.03945095454062997
0.04247808423296351
0.04555409793900567
0.048678913446882244
0.05185242487767039
0.05507450268539754
0.05834499365704182
0.06166372091253214
0.06503048390474803
0.06844505841951987
0.07190719657562844
0.07541662682480554
0.07897305395173332
0.08257615907404475
0.0862290830472528
0.08993778592839735
0.09370044939817945
0.09751502085374103
0.10137944774688734
0.10529167758408675
0.10924965792647046
0.1132513363898332
0.11729466064463212
0.12137757841598829
0.12549803748368482
0.1296539856821689
0.13384337090054987
0.138064141082601
0.14231424422675798
0.14659162838612005
0.150894241668449
0.1552200322361701
0.15956694830637175
0.1639329381508049
0.16831595009588407
0.17271393252268685
0.17712483386695344
0.18154660261908762
0.1859771873241559
0.190414536581888
0.19485659904667696
0.19930132342757811
0.20374665848831086
0.20819055304725698
0.21263095597746162
0.2170658162066328
0.22149308271714196
0.22591070454602324
0.23031663078497377
0.2347088105803543
0.239085193133188
0.24344372769916167
0.24778236358862493
0.2520990501665904
0.25639173685273375
0.26065837312139395
0.264896908501573
0.2691052925769357
0.2732814749858101
0.2774234054211874
0.2815290336307218
0.28559630941673053
0.2896231826361939
0.2936076032007554
0.29754752107672133
0.3014408862850614
0.3052856489014081
0.30907975905605745
0.31282116693396766
0.31650782277476086
0.320137676872722
0.32370867957679894
0.32721878129060256
0.3306659324724073
0.33404808363515026
0.3373631853464314
0.3406091882285144
0.34378404295832565
0.34688570026745424
0.3499121109421529
0.35286122582333734
0.3557309958065862
0.358519371842141
0.36122430493490687
0.36384374614445136
0.36637564658500577
0.36881795742546375
0.3711686298893828
0.37342561525498275
0.37558686485514714
0.3776503300774219
0.37961396236401657
0.38147571321180374
0.38323353417231876
0.3848853768517604
0.3864291929109902
0.38786293406553274
0.389184552085576
0.39039199879597075
0.3914832260762312
0.3924561858605339
0.39330883013771933
0.3940391109512905
0.39464498039941365
0.39512372948703967
0.3954731625846357
0.39569438564675874
0.3957886613707695
0.39575727026140217
0.395601510630764
0.39532269859833613
0.3949221680909729
0.3944012708429028
0.3937613763957273
0.39300387209842125
0.3921301631073335
0.39114167238618625
0.3900398407060749
0.388826126645469
0.38750200659021106
0.3860689747335174
0.3845285430759776
0.3828822414255548
0.38113161739758594
0.3792782364147814
0.37732368170722486
0.37526955431237363
0.3731174730750586
0.3708690746474842
0.3685260134892281
0.36608996186724174
0.3635626098558501
0.36094566533675154
0.35824085399901806
0.3554499193390951
0.35257462266080153
0.3496167430753301
0.34657807750124636
0.34346044066449033
0.34026566509837486
0.3369956011435863
0.3336521169481851
0.33023709846760463
0.32675244946465176
0.3232000915095077
0.31958196397972616
0.315900024060235
0.3121562467433352
0.3083526248287015
0.30449116892338235
0.30057390744179935
0.2966028866057475
0.292580170444396
0.2885078407942868
0.2843879972993357
0.28022275741083225
0.27601425638743904
0.27176464729519245
0.26747610100750263
0.26315080620515263
0.2587909693762993
0.2543988148164734
0.24997658462857875
0.24552653872289254
0.24105095481706618
0.23655212843612372
0.23203237291246326
0.22749401938585656
0.22293941680344842
0.21837093191975765
0.21379094929667597
0.20920187130346912
0.20460611811677631
0.2000061277206101
0.19540435590635663
0.19080327627277538
0.18620538022599986
0.18161317697953638
0.17702919355426538
0.17245597477844066
0.16789608328768924
0.16335209952501206
0.15882662174078332
0.15432226599275056
0.1498416661460359
0.14538747387313322
0.14096235865391127
0.13656900777561176
0.13221012633285045
0.1278884372276159
0.12360668116927043
0.1193676166745502
0.11517402006756472
0.11102868547979672
0.10693306723989204
0.10288422684602083
0.09888230085050742
0.09492775944165799
0.09102105312235959
0.08716261271007919
0.08335284933686488
0.0795921544493447
0.07588089980872736
0.07221943749080217
0.06860809988593874
0.0650471996990874
0.06153702994977844
0.058077863972123334
0.05466995541481351
0.051313538241121004
0.04800882672889839
0.044756015470578614
0.04155527937317549
0.038406773658282656
0.035310633862074725
0.03226697583530658
0.029275895743313685
0.026337470066011948
0.023451755597897694
0.02061878944804768
0.017838589040119535
0.015111152112350812
0.01243645671755983
0.009814461223145388
0.00724510431108677
0.004728304977943465
0.002263962534856112
-0.00014804339245505505
-0.0025078528636885977
-0.0048156256239630935
-0.007071541103816303
-0.009275798419205561
-0.011428616371507994
-0.013530233447519968
-0.015580907819457535
-0.017580917344955982
-0.01953055956707056
-0.021430151714275814
-0.023280030700465637
-0.02508055312495372
-0.026832095272473155
-0.02853505311317661
-0.030189842302636216
-0.03179689818184367
-0.033356675777210076
-0.03486964980056628
-0.03633631464916237
-0.03775718440566833
-0.03913279283817328
-0.04046369340018602
-0.04175045923063503
-0.04299368315386798
-0.044193977679652385
-0.045351975003175116
-0.0464683270050425
-0.0475437052512806
-0.048578800993334836
-0.04957432516807009
-0.05053100839777108
-0.05144960099014151
-0.05233087293830524
-0.05317561392080522
-0.053984633301604135
-0.054758760130083906
-0.05549884314104625
-0.05620575075471246
-0.05688037107672306
-0.057523611898138316
-0.05813640069543796
-0.05871968463052113
-0.05927443055070686
-0.05980162498873315
-0.06030227416275796
-0.06077740397635861
-0.06122806001853198
-0.06165530756369442
-0.06206023157168172
-0.06244393668774961
-0.06280754724257265
-0.06315220725224557
-0.06347908041828226
-0.06378935012761633
-0.0640837348036924
-0.06435991157552756
-0.06461777635153865
-0.06485779512758139
-0.06508042770434574
-0.06528612768735537
-0.0654753424869674
-0.06564851331837301
-0.0658060752015972
-0.06594845696149848
-0.06607608122776931
-0.06618936443493606
-0.06628871682235848
-0.06637454243423052
-0.06644723911957962
-0.06650719853226711
-0.06655480613098808
-0.06659044117927138
-0.06661447674547971
-0.0666272797028094
-0.06662921072929068
-0.06662062430778753
-0.0666018687259976
-0.06657328607645252
-0.06653521225651748
-0.06648797696839165
-0.06643190371910768
-0.0663673098205324
-0.06629450638936607
-0.06621379834714292
-0.06612548442023086
-0.0660298571398315
-0.0659272028419805
-0.06581780166754708
-0.0657019275622342
-0.06557984827657876
-0.06545182536595129
-0.06531811419055616
-0.06517896391543154
-0.06503461751044937
-0.0648853117503152
-0.06473127721456867
-0.06457273828758292
-0.06440991315856504
-0.06424301382155567
-0.0640722460754295
-0.06389780952389484
-0.06371989757549384
-0.0635386974436023
-0.06335439014642996
-0.06316715050702026
-0.06297714715325042
-0.06278454251783139
-0.06258949283830795
-0.062392148157058624
-0.06219265232129573
-0.06199114298306535
-0.06178775159924749
-0.06158260343155553
-0.06137581754653715
-0.06116750681557337
-0.06095777791487922
-0.0607467313255034
-0.060534461333328515
-0.060321056029070785
-0.06010659730828022
-0.05989116087134083
-0.059674816223470095
-0.05945762667471938
-0.059239649339974
-0.05902093513895279
-0.05880152879620848
-0.05858146884112758
-0.0583607876079304
-0.058139511235670904
-0.057917659668236865
-0.05769524665435005
-0.05747227974756569
-0.057248760306272906
-0.05702468349369477
-0.056800038277887877
-0.056574807431742646
-0.05634896753298341
-0.05612248896416805
-0.05589533591268858
-0.05566746637077041
-0.055438832135472904
-0.0552093788086892
-0.05497904579714624
-0.05474776631240463
-0.05451546699334742
-0.05428185051853829
-0.0540467713541406
-0.05381032373566391
-0.05357259999684605
-0.053333690569652925
-0.053093683984278384
-0.05285266686914453
-0.05261072395090144
-0.0523679380544273
-0.052124390102828655
-0.051880159117439706
-0.0516353222178233
-0.05138995462176987
-0.051144129645298186
-0.05089791870265514
-0.050651391306315685
-0.05040461506698285
-0.05015765569358788
-0.04991057699328988
-0.04966344087147634
-0.04941630733176261
-0.04916923447599236
-0.04892227850423714
-0.04867549371479679
-0.04842893250419911
-0.04818264536720018
-0.04793668089678382
-0.04769108578416248
-0.04744590481877631
-0.047201180888293504
-0.0469569549786108
-0.046713266173852575
-0.046470151656371694
-0.046227646706748726
-0.04598578470379261
-0.04574459712454032
-0.04550411354425704
-0.04526436163643577
-0.045025367172797814
-0.044787154023292586
-0.04454974415609758
-0.044313157637618394
-0.0440774126324886
-0.04384252540357014
-0.04360851031195273
-0.04337537981695444
-0.04314314447612133
-0.04291181294522761
-0.042681391978275474
-0.04245188642749537
-0.04222329924334589
-0.04199563147451346
-0.04176888226791281
-0.04154304886868676
-0.041318126620206175
-0.041094108964070064
-0.04087098744010542
-0.04064875168636761
-0.040427389439139816
-0.04020688653293353
-0.03998722690048806
-0.03976839257277115
-0.03955036367897852
-0.039333118446533866
-0.03911663320108916
-0.03890088236652428
-0.03868583846494755
-0.03847147211669494
-0.038257752040330884
-0.03804464505264782
-0.0378321160686661
-0.037620128101634454
-0.03740864226302959
-0.0371976177625562
-0.03698701190814735
-0.03677678010596397
-0.03656687586039509
-0.0363572507740581
-0.036147854547798175
-0.03593863498068878
-0.03572953797003142
-0.0355205075113556
-0.0353114856984193
-0.03510241272320813
-0.034893226875936045
-0.03468386454504507
-0.034474260217205344
-0.03426434647731513
-0.034054054008500645
-0.03384331159211634
-0.03363204610774484
-0.03342018253319662
-0.03320764394451048
-0.03299435151595331
-0.03278022452001994
-0.03256518032743344
-0.03234913440714493
-0.032132000326333565
-0.031913689750406815
-0.03169411244300013
-0.0314731762659769
-0.03125078717942881
-0.03102684924167559
-0.030801264609265133
-0.030573933536973297
-0.03034475437780415
-0.030113623582989857
-0.02988043570199067
-0.029645083382494886
-0.029407457370419
-0.029167446509907435
-0.028924937743333046
-0.028679816111296386
-0.028431964752626326
-0.028181264904379832
-0.027927595901842017
-0.027670835178525977
-0.027410858266172955
-0.027147538794752346
-0.026880748492461526
-0.02661035718572613
-0.02633623279919972
-0.026058241355764122
-0.02577624697652925
-0.02549011188083289
-0.0251996963862412
-0.024904858908548322
-0.0246054559617766
-0.024301342158176253
-0.023992370208225755
-0.023678390920631787
-0.023359253202328956
-0.023034804058479907
-0.022704888592475714
-0.022369350005935207
-0.02202802959870548
-0.02168400786677671
-0.021339679146526624
-0.020993140632208696
-0.020642506779655345
-0.020285913474293593
-0.019921518031145835
-0.019547499194829066
-0.01916205713955571
-0.01876341346913274
-0.018349811216962386
-0.017919514846041762
-0.01747081024896302
-0.017002004747913246
-0.01651142709467457
-0.015997427470624104
-0.015458377486733788
-0.014892670183570933
-0.01429872003129734
-0.013674962929670131
-0.013019856208041358
-0.01233187862535795
-0.011609530370161991
-0.010851333060590385
-0.010055829744375133
-0.009221584898843227
-0.008347184430916477
-0.007431235677112014
-0.006472367403541568
-0.005469229805912135
-0.00442049450952553
-0.003324854569278557
-0.0021810244696632286
-0.0009877401247663231
0.0002562411217303384
0.0015521404965499475
0.002901157796820708
0.004304471390075726
0.005763238214253341
0.007278593777696796
0.008851652159154344
0.010483506007779086
0.012175226543129525
0.01392786355516884
0.015742445404265337
0.017619979021192334
0.019561449907128214
0.021567822133656434
0.02364003834276507
0.025779019746847598
0.027985666128702458
0.030260855841533096
0.032605445808947864
0.03502027152496029
0.03750614705398869
0.040063865030856405
0.04269419666079216
0.04539789171942937
0.04817567855280647
0.05102826407736688
0.05395633377995934
0.05696055171783737
0.06004156051865933
0.06319998138048888
0.06643641407179457
0.06975143693145008
0.073145606868734
0.07661945936332992
0.08017350846532639
0.08380824679521715
0.08752414554390076
0.09132165447268115
0.09520148911306459
0.0991823292519714
0.10326879336172701
0.10745199855668375
0.11172320303661587
0.1160738060867198
0.12049534807761486
0.12497951046534217
0.12951811579136496
0.13410312768256938
0.13872665085126334
0.14338093109517713
0.14805835529746358
0.15275145142669766
0.15745288853687645
0.1621554767674196
0.16685216734316877
0.1715360525743883
0.17620036585676446
0.18083848167140582
0.1854439155848434
0.19001032424903053
0.19453150540134279
0.19900139786457793
0.20341408154695595
0.2077637774421196
0.21204484762913312
0.21625179527248395
0.22037926462208102
0.22442204101325602
0.22837505086676269
0.2322333616887774
0.23599218207089834
0.23964686169014637
0.24319289130896438
0.2466259027752179
0.24994166902219406
0.2531361040686032
0.25620526301857705
0.2591453420616703
0.26195267847285963
0.26462375061254406
0.267155177926545
0.2695437209461059
0.2717862812878925
0.27387990165399345
0.27582176583191853
0.277609198694601
0.27923966620039575
0.2807107753930802
0.28202027440185373
0.2831660524413384
0.2841461398115783
0.2849587078980401
0.28560206917161235
0.28607467718860613
0.2863751265907548
0.286502153105214
0.2864546335445616
0.2862315858067981
0.28583216887534546
0.2852556828190488
0.28450156879217514
0.28356940903441386
0.2824589268708765
0.28116998671209703
0.27970259405403175
0.2780568954780591
0.27623317865097985
0.274231872325017
0.2720535463378161
0.26969891161244486
0.26716917652989947
0.2644731032526303
0.26162039006630033
0.2586192197138566
0.2554776436799632
0.2522035821910009
0.2488048242150679
0.24528902746197911
0.24166371838326672
0.23793629217218004
0.23411401276368515
0.23020401283446545
0.2262132938029212
0.22214872582917022
0.21801704781504616
0.21382486740410067
0.20957866098160283
0.2052847736745378
0.20094941935160815
0.19657868062323391
0.19217850884155163
0.18775472410041505
0.18331301523539512
0.17885893982377965
0.17439792418457367
0.16993526337849907
0.16547612120799482
0.1610255302172171
0.1565883916920393
0.15216947566005135
0.14777342089056034
0.14340473489459082
0.139067793924884
0.13476684297589836
0.13050599578380928
0.12628923482650922
0.12212041132360796
0.1180032452364318
0.11394132526802436
0.10993810886314648
0.10599692220827606
0.10212096023160755
0.098313286603053
0.09457683373424114
0.0909144027785182
0.08732866363094688
0.08382215492830741
0.08039728404909685
0.07705632711352922
0.07380142898353592
0.07063460326276494
0.06755765739332409
0.06455655594276816
0.061622929280122196
0.05876088192429835
0.05597413560256931
0.05326602925056756
0.050639519012285916
0.04809717824007714
0.04564119749465445
0.04327338454509094
0.04099516436881989
0.03880757915163485
0.03671128828768955
0.03470656837949743
0.032793313237932775
0.030971033882229437
0.02923885853998176
0.027595532647143928
0.026039418848030516
0.024568496995316214
0.023180364150035715
0.02187223458158416
0.02064093976771636
0.01948292839454785
0.018394266356553612
0.01737063675656958
0.016407339905791185
0.0154992933237742
0.014641031738434673
0.013826707086048773
0.013050088511252611
0.012304562367042748
0.011583132214775582
0.010878418824167846
0.010182660173296443
0.009487711448598168
0.008785045044870377
0.008065750565270147
0.007320534821315061
0.006539721832882539
0.005713252828210336
0.004830686243896265
0.003881197724898533
0.002853580124535071
0.0017362435044843139
0.0005172151347844767
-0.000815860506165611
-0.002275721731607283
-0.0038754896464218147
-0.005628668147130034
-0.007549143921892654
-0.009651186450510718
-0.011939030569020792
-0.014425269179169031
-0.01714846711505308
-0.02014173257725066
-0.02343225690230638
-0.02704131456273101
-0.030984263167002257
-0.03527054345956443
-0.03990367932082828
-0.04488127776717121
-0.05019502895093719
-0.055830706160437005
-0.06176816581994771
-0.0679813474897133
-0.07443827386594404
-0.08110105078081697
-0.08792586720247597
-0.09486299523503089
-0.10185679011855892
-0.10884569022910323
-0.11576221707867407
-0.12253297531524798
-0.12907865272276814
-0.13531402022114453
-0.14114793186625357
-0.14648332484993826
-0.15121721950000816
-0.15524071928023972
-0.15844921567043124
-0.16087282441927253
-0.16239496268286013
-0.16284537667893623
-0.16206553771667623
-0.1599086421966889
-0.15623961161101613
-0.15093509254313323
-0.14388345666794866
-0.1349848007518052
-0.12415094665247595
-0.11130544131917014
-0.09638355679252908
-0.07933229020462779
-0.06011036377897422
-0.0386882248305096
-0.015048045765608697
0.010816275917920837
0.038899117630837976
0.06918313169246809
0.10163924533070368
0.13622666068200395
0.17289285479139493
0.21157357961246892
0.2521928620073852
0.29466300374687027
0.33888458151021683
0.38474644688528403
0.4321257263684989
0.48113880398774167
0.5320034589382233
0.584086165807871
0.6367509352688591
0.6893971475981172
0.7414595526773314
0.792408269992943
0.8417487886361487
0.8890219673029017
0.9338040342939103
0.9757065875146392
1.014376594475308
1.0494963922908922
1.0807836876811234
1.107991556970489
1.1309084460882315
1.14935817056835
1.1631999155495976
1.1723282357754852
1.1766730555942781
1.1761996689589975
1.1709087394274205
1.160836300162082
1.1460537539302664
1.1266678731040236
1.102820799660146
1.074690045180199
1.0424884908504821
1.006464387462077
0.96690135541079
0.9241183846972173
0.8784698349266745
0.8303481852660369
0.78031272474473
0.7288387666559174
0.6762976245962352
0.6230429137688273
0.5694105509832512
0.5157187546555752
0.46226804480827977
0.4093412430703559
0.3572034726772082
0.30610215847075006
0.2562670268993106
0.20791010601772486
0.16122572548725667
0.11639051657563293
0.07356341215707118
0.032885646712212835
-0.005519243671802898
-0.04154542130141009
-0.07510474687654822
-0.10612677949072541
-0.13455877663096016
-0.1603656941778355
-0.18353018640544924
-0.2040526059814582
-0.22195100396703893
-0.23726112981692388
-0.2500364313793679
-0.2603480548961775
-0.26828484500268734
-0.27395334472777866
-0.277477795493864
-0.2790001371169002
-0.27868000780637736
-0.27669474416532763
-0.2732393811903212
-0.268526652271463
-0.2627510761116998
-0.2558675732037366
-0.24797797216279463
-0.2392228092335226
-0.22973602532707033
-0.21964496602107347
-0.20907038155967028
-0.19812642685348392
-0.1869206614796408
-0.17555404968175153
-0.16412096036993068
-0.1527091671207765
-0.14139984817739143
-0.13026758644936154
-0.11938036951277708
-0.1087995896102123
-0.09858004365074469
-0.08876993320993681
-0.07941086452985369
-0.07053784851904593
-0.06217930075256611
-0.05435704147195308
-0.04708629558524691
-0.04037569266697455
-0.03422726695816336
-0.028636457366328916
-0.023592107465485734
-0.01907646549613773
-0.015065184365286866
-0.01152732164642506
-0.008425339579542002
-0.005715105071117721
-0.003345889694129356
-0.0012603696880452708
0.0006053740411703368
0.0023218559210604894
0.003966185712673487
0.00556645495566882
0.007041213766523613
0.00839727084267411
0.00964560938799719
0.010796789912891402
0.011860950234274581
0.012847805475585616
0.013766648066783072
0.014626347744346513
0.015435351551275123
0.016201683837089198
0.016932946257828374
0.017636317776053623
0.018318554660845476
0.01898599048780525
0.01964453613905426
0.020299679803234494
0.020956486975507727
0.021619600457556787
0.022293240357584065
0.022981204090312957
0.023686866376986526
0.024413179245368788
0.025162672029743482
0.0259374513709153
0.02673920121620854
0.027569182819468574
0.02842823474106021
0.02931677284786982
0.030234790313302562
0.031181857617285424
0.03215712254626446
0.033159310193207114
0.03418672295760006
0.035237240545451354
0.03630831996928846
0.03739699554816006
0.03850663658678094
0.03964422764891362
0.04081065284504498
0.042006771075305316
0.04323342311802536
0.04449143162973751
0.045781601145173934
0.04710471807726907
0.04846155071715713
0.04985284923417421
0.0512793456758564
0.05274175396794184
0.05424076991436827
0.05577707119727582
0.057351317377003996
0.05896414989209503
0.06061619205929025
0.06230804907353338
0.0640403080079679
0.06581353781393962
0.06762828932099363
0.06948509523687757
0.07138447014753851
0.07332691051712598
0.0753128946879888
0.07734288288067837
0.07941731719394546
0.08153662160474351
0.08370120196822484
0.08591144601774497
0.0881677233648579
0.09047038549932074
0.09281976578909074
0.09521617948032529
0.09765992369738424
0.1001512774428267
0.10269050159741444
0.10527783892010822
0.10791351404807215
0.11059773349666857
0.11333068565946325
0.11611254080822064
0.1189434510929086
0.12182355054169314
0.12475295506094386
0.12773176243522888
0.1307600523273199
0.1338378862781866
0.13696530770700244
0.14014234191113906
0.14337279914588008
0.14666986919711977
0.15003287595274728
0.15345977671950495
0.15694853189251745
0.16049710495528513
0.16410346247969076
0.16776557412599324
0.171481412642833
0.17524895386722672
0.17906617672457348
0.18293106322864783
0.18684159848160697
0.19079577067398334
0.19479157108469247
0.19882699408102478
0.20290003711865356
0.2070087007416277
0.21115098858237868
0.21532490736171306
0.21952846688882066
0.223759680061266
0.22801656286499694
0.2322971343743362
0.2365994167519896
0.2409214352490382
0.24526121820494573
0.24961679704755102
0.2539862062930762
0.25836748354611827
0.2627586694996572
0.2671578079350483
0.2715629457220293
0.2759721328187138
0.2803834222715976
0.2847948702155524
0.2892045358738319
0.293610481558066
0.2980107726682667
0.3024034776928216
0.30678666820850087
0.31115841888045015
0.315516807462198
0.319859914795648
0.3241858248110864
0.3284926245271752
0.33277840405095893
0.3370412565778572
0.3412792783916728
0.3454905688645836
0.3496732304571504
0.35382536871830905
0.3579450922853782
0.3620305128840521
0.3660797453284075
0.3700909075208966
0.3740621204523542
0.3779915082019907
0.3818771979373987
0.3857173199145473
0.3895100074777864
0.3932533970598434
0.3969456281818269
0.40058484345322143
0.4041691885718942
0.40769681232408794
0.41116586658442766
0.4145745063159142
0.41792088956993056
0.4212031774862358
0.4244195342929713
0.42756812730665383
0.43064712693218243
0.4336547066628327
0.4365890430802616
0.4394483158545023
0.44223070774397033
0.4449344045954571
0.44755759534413575
0.4500984720135556
0.45255522971564854
0.45492606665072177
0.4572091841074648
0.45940278646294364
0.46150508118260514
0.46351427882027396
0.4654285930181544
0.46724624050682984
0.4689654411052625
0.4705844177207935
0.4721013963491434
0.4735146060744111
0.4748222790690758
0.4760226505939944
0.4771139589984037
0.4780944457199189
0.4789623552845349
0.47971593530662493
0.480353436488942
0.48087311262261767
0.4812732205871627
0.4815520203504666
0.4817077749687986
0.48173875058680615
0.4816432164375163
0.4814194448423349
0.481065711211047
0.4805797544065743
0.47995348281564665
0.4791869808013557
0.47828320290915993
0.4772450837368123
0.47607553793436364
0.474777460204159
0.47335372530084074
0.4718071880313456
0.4701406832549083
0.4683570258830574
0.46645901087961894
0.4644494132607141
0.4623309880947608
0.46010647050247133
0.457778575656856
0.4553499987832189
0.45282341515916247
0.4502014801145825
0.44748682903167325
0.4446820773449224
0.44178982054111615
0.438812634159334
0.43575307379095407
0.4326136750796479
0.4293969537213854
0.42610540546442977
0.4227415061093429
0.41930771150898005
0.4158064575684952
0.41224016024533483
0.4086112155492454
0.4049219995422648
0.40117486833873184
0.39737215810527626
0.39351618506082786
0.38960924547660947
0.3856536156761424
0.38165155203524104
0.3776052909820188
0.373517048996882
0.3693890226125358
0.3652233884139783
0.3610223030385069
0.3567879031757115
0.35252230556748143
0.34822760700799793
0.3439058843437427
0.3395591944734889
0.3351895743483101
0.3307990409715712
0.32638959139893753
0.3219632027383662
0.3175218321501141
0.31306741684673056
0.30860187409306417
0.30412710120625597
0.29964497555574676
0.2951573545632693
0.2906660757028564
0.2861729565008324
0.28167979453582237
0.2771883674387424
0.2727004328928092
0.2682177286335311
0.26374197244871644
0.2592748621784656
0.2548180757151789
0.25037327100354845
0.2459420860405661
0.24152613887551622
0.23712702760998283
0.23274633039784176
0.22838560544526898
0.22404639101073243
0.21973020540499955
0.21543854699113052
0.21117289418448448
0.20693470545271364
0.20272541931576893
0.19854645434589435
0.1943992091676331
0.19028506245782062
0.18620537294559214
0.18216147941237482
0.1781547006918962
0.17418633567017516
0.1702576632855306
0.1663699425285743
0.16252441244221638
0.1587222921216601
0.15496478071440845
0.1512530574202562
0.14758828149129766
0.14397159223192013
0.14040410899880973
0.13688693120094553
0.13342113829960545
0.13000778980836036
0.12664792529308044
0.12334256437192803
0.12009270671536554
0.11689933204614733
0.11376340013932706
0.11068585082225135
0.10766760397456587
0.10470955952820893
0.10181259746741789
0.09897757782872352
0.09620533983118112
0.09349534211797061
0.09084604231299792
0.08825659352634896
0.08572615450263327
0.08325388962097985
0.08083896889504122
0.07848056797298958
0.07617786813752053
0.07393005630584926
0.07173632502971455
0.06959587249537469
0.06750790252361144
0.06547162456972622
0.06348625372354383
0.06155101070940883
0.05966512188618911
0.05782781924727226
0.05603834042056932
0.054295928668511295
0.052599832888051035
0.050949307610664074
0.0493436130023458
0.04778201486361461
0.04626378462950925
0.044788199369591275
0.04335454178794229
0.04196210022316699
0.04061016864839012
0.03929804667125941
0.03802503953394265
0.0367904581131307
0.03559361892003454
0.034433844100387856
0.03331046143444494
0.032222804336982436
0.031170211857297736
0.030152028679210685
0.029167605121061535
0.02821629713571333
0.027297466310549523
0.026410479867476078
0.025554710662919533
0.024729537187828943
0.023934343567674043
0.023168519562446865
0.022431460566660177
0.021722567609349264
0.021041247354069925
0.02038691209890031
0.01975897977643959
0.019156873953808884
0.018580023832650228
0.018027864249128167
0.017499835673927766
0.016995384212256492
0.016513961603842553
0.016055025222936448
0.015618038078309693
0.015202468813255543
0.014807791705588769
0.014433486667645823
0.014079039246284453
0.013743940622883977
0.013427687613345451
0.013129782668091339
0.012849733872065616
0.012587054944733889
0.012341265240083277
0.012111889746622417
0.011898459087381352
0.011700509519912028
0.011517582936287574
0.011349226863102913
0.011194994461474206
0.01105444452703952
0.010927141489958159
0.010812655414911165
0.010710562001101043
0.010620442582251866
0.010541884126609169
0.01047447923694017
0.010417826150533382
0.01037152873919922
0.010335196509269284
0.010308444601596911
0.010290893791557065
0.01028217048904595
0.010281906738481561
0.0102897402188033
0.010305314243472252
0.01032827776047096
0.010358285352303431
0.010394997235995462
0.010438079263093925
0.01048720291966776
0.010542045326307092
0.010602289238123785
0.010667623044751162
0.010737740770343895
0.010812342073578673
0.010891132247653479
0.010973822220287421
0.011060128553721793
0.011149773444719291
0.011242484724563795
0.01133799585906109
0.011436045948538254
0.011536379727844104
0.011638747566348917
0.011743098966823351
0.011849764058520396
0.011958693057316394
0.012069815680776419
0.012183062591821725
0.012298365398729472
0.012415656655132945
0.012534869860020947
0.012655939457738852
0.012778800837987492
0.012903390335823994
0.013029645231661113
0.013157503751268118
0.013286905065769683
0.01341778929164672
0.013550097490736046
0.013683771670230604
0.013818754782678966
0.013954990725985994
0.014092424343412235
0.01423100142357453
0.01437066870044551
0.014511373853353604
0.014653065506983587
0.014795693231375862
0.014939207541926958
0.015083559899389476
0.015228702709871533
0.015374589324837928
0.015521174041108754
0.01566841210086034
0.015816259691625145
0.015964673946291363
0.01611361294310326
0.016263035705660955
0.01641290220292063
0.01656317334919455
0.01671381100415059
0.01686477797281305
0.01701603800556184
0.017167555798132894
0.017319296991618327
0.017471228172466102
0.017623316872479977
0.01777553156881989
0.017927841684001578
0.01808021758589695
0.018232630587733778
0.01838505294809578
0.018537457870922647
0.018689819505509964
0.018842112946509504
0.018994314233928833
0.01914640035313142
0.019298349234836976
0.019450139755120777
0.019601751735414452
0.019753165942505424
0.01990436408853702
0.02005532883100858
0.020206043772775573
0.020356493462049263
0.020506663392396873
0.02065654000274164
0.020806110677362766
0.020955363745895406
0.02110428848333079
0.021252875110015834
0.02140111479165374
0.021548999639303568
0.021696522709380217
0.021843678003654665
0.021990460469253847
0.022136865998660826
0.02228289142971429
0.022428534545609002
0.02257379407489607
0.02271866969148184
0.022863162014629457
0.023007272608957408
0.02315100398444031
0.02329435959640891
0.02343734384554974
0.023579962077905414
0.023722220584874498
0.02386412660321141
0.024005688315026585
0.024146914847786582
0.0242878162743137
0.02442840361278642
0.02456868882673885
0.0247086848250615
0.024848405462000678
0.024987865537158427
0.025127080795492918
0.025266067927318503
0.025404844568305274
0.025543429299479337
0.025681841647222592
0.025820102083273233
0.025958232024725136
0.02609625383402847
0.02623419081898898
0.026372289645776148
0.02651146257184006
0.026651651836809453
0.026792687052133946
0.02693440544748915
0.027076651870776625
0.027219278788123746
0.02736214628388406
0.027505122060636544
0.027648081439186567
0.02779090735856532
0.0279334903760296
0.028075728667062594
0.028217528025373084
0.02835880186289602
0.028499471209792016
0.028639464714447782
0.028778718643475754
0.028917176881714635
0.029054790932228736
0.02919151991630836
0.029327330573469867
0.029462197261455436
0.029596101956233023
0.029729034251996966
0.029860991361166878
0.029991978114388862
0.03012200696053463
0.030251097966702056
0.030379278818214506
0.030506584818621785
0.03063305888969914
0.030758751571448195
0.03088372102209619
0.031008033018096404
0.031131760954128118
0.03125498584309616
0.0313777963161318
0.0315002886225918
0.031622566630059135
0.031744741824342615
0.03186693330947682
0.03198926780772249
0.032111879659566134
0.03223491082372032
0.032358510877123214
0.03248283701493937
0.03260805405055894
0.03273433441559809
0.032861858159898893
0.03299081295152928
0.03312139407678333
0.033253804440180834
0.033388254564467534
0.033524962590615104
0.03366415427782127
0.03380606300350947
0.033950929763329196
0.03409900317115583
0.034250539459090734
0.034405802477461056
0.034565063694819875
0.03472860219794649
0.03489670469184569
0.03506966549974855
0.03524778656311173
0.03543137744161817
0.03562075531317649
0.03581624497392116
0.036018178838212844
0.036226896938638065
0.03644274692600907
0.03666608406936406
0.036897271255967534
0.03713667899130929
0.03738468539910572
0.03764167622129849
0.03790804481805571
0.03818419216777119
0.03847052686706465
0.03876746513078172
0.03907536856182242
0.03938710313962496
0.03969960718943699
0.040015740781962794
0.04033830627426899
0.04067004830978427
0.04101365381830019
0.041371752015969876
0.041746914405309477
0.04214165477519671
0.04255842920087227
0.04299963604393875
0.043467615952361205
0.04396465186046683
0.04449296898894545
0.04505473484484873
0.0456520592215911
0.04628699419894894
0.046961534143061257
0.04767761570642892
0.048437117827915765
0.04924186173274697
0.050093610932511135
0.050994071225158144
0.05194489069500102
0.05294765971271437
0.05400391093533585
0.055115119306264504
0.05628270205526276
0.05750801869845423
0.05879237103832596
0.060137003163726
0.06154310144986619
0.06301179455831923
0.06454415343702141
0.06614119132027008
0.06780386372872621
0.06953306846941165
0.07132964563571209
0.07319437760737385
0.07512798905050733
0.07713114691758344
0.07920446044743712
0.08134848116526394
0.0835637028826236
0.08585056169743605
0.08820943599398551
0.09064064644291675
0.09314445600123877
0.09572106991232043
0.09837063570589566
0.10109324319805801
0.10388892449126597
0.10675765397433745
0.10969934832245565
0.1127138664971633
0.1158010097463682
0.11896052160433734
0.12219208789170322
0.12549533671545776
0.12886983846895783
0.13231510583191985
0.13583059377042572
0.1394156995369159
0.1430697626701971
0.14679206499543473
0.15058183062415975
0.15443822595426215
0.15836035966999762
0.16234728274198085
0.166397988427192
0.17051141226897026
0.17468643209702084
0.178927249495356
0.18325149815202058
0.18765119127472962
0.19211568658386602
0.1966345701280341
0.2011976562840676
0.2057949877570221
0.21041683558018232
0.21505369911505456
0.2196963060513749
0.22433561240710054
0.2289628025284186
0.23356928908973718
0.2381467130936945
0.24268694387115008
0.2471820790811925
0.25162444471113243
0.2560065950765099
0.26032131282108617
0.26456160891685243
0.26872072266402114
0.2727921216910343
0.2767695019545554
0.2806467877394775
0.2844181316589153
0.2880779146542123
0.2916207459949348
0.29504146327887726
0.2983351324320569
0.301497047708719
0.30452273169133204
0.3074079352905923
0.31014863774541923
0.3127410466229601
0.31518159781858557
0.31746695555589355
0.31959401238670593
0.32155988919107137
0.32336193517726397
0.32499772788178216
0.32646507316935125
0.32776200523292087
0.32888678659366744
0.32983790810099134
0.3306140889325203
0.3312142765941056
0.3316376469198259
0.3318836040719839
0.3319517805411085
0.33184203714595417
0.33155446303350056
0.33108937567895314
0.33044732088574247
0.3296290727855252
0.32863563383818306
0.3274682348318235
0.32612833488277904
0.32461762143560857
0.32293801026309554
0.3210916454662499
0.31908089947430573
0.3169083730447244
0.314576895263191
0.31208952354361785
0.3094495436281409
0.3066604695871237
0.30372604381915314
0.3006502370510439
0.29743724833783347
0.29409150506278836
0.2906176629373962
0.2870206060013748
0.28330543310858114
0.2794758984624297
0.2755385247801714
0.2715017199678439
0.26737370880829336
0.2631625329611803
0.2588760509629735
0.25452193822695657
0.2501076870432206
0.24564060657867248
0.24112782287702583
0.23657627885881038
0.2319927343213627
0.22738376593883514
0.22275576726218693
0.21811494871919335
0.2134673376144367
0.2088187781293147
0.20417493132203257
0.19954127512761077
0.1949231043578773
0.1903255307014755
0.18575348272385606
0.1812117058672852
0.17670476245083644
0.1722370316703985
0.16781270959866812
0.16343580918515654
0.1591101602561834
0.15483940951488284
0.15062702054119703
0.14647627379188277
0.14239026660050536
0.13837191317744457
0.13442394460988816
0.13054890886183868
0.12674917077410663
0.12302691206431748
0.11938413132690473
0.11582264403311637
0.1123440825310088
0.10894989604545269
0.1056413506781273
0.10241952940752608
0.0992853320889513
0.09623947545451872
0.09328249311315379
0.09041473555059498
0.08763637012939046
0.08494738108890176
0.08234756954529943
0.07983655349156782
0.07741376779750075
0.07507846420970493
0.07282971135159705
0.07066639472340674
0.06858721670217338
0.06659069654174943
0.06467517037279696
0.06283879120279129
0.06107952891601742
0.05939517027357338
0.05778331891336669
0.05624139535011852
0.05476663697535927
0.053356098057432466
0.052006649741491495
0.05071498004950298
0.04947759388024281
0.04829081300930005
0.047150776089073976
0.04605343864877631
0.04499457309442906
0.043969960953174236
0.04301662748268975
0.04214960302647375
0.04134753133582836
0.04058971576465337
0.03985611926944477
0.03912736440929626
0.038384733345897815
0.0376101678435371
0.03678626926909778
0.035896298592061615
0.03492417638450618
0.03385448282110709
0.03267245767913585
0.031364000338461984
0.029915669781550802
0.028314684593466144
0.02654892296186684
0.0246069226770107
0.022477881131751087
0.02015165532153823
0.017618761844420794
0.01487037690104237
0.011898336294645817
0.008695135431068257
0.005253929318746853
0.0015685325687124774
-0.0023665806054037897
-0.006556276387377324
-0.011004761358382908
-0.015715582497002167
-0.020691627179215688
-0.025935123178411512
-0.03144763866537609
-0.037230082208303705
-0.04328270277278673
-0.04960508972182576
-0.0561961728158189
-0.06305422221257323
-0.0701801664686178
-0.07750137394947265
-0.08489946335776094
-0.09225813931630394
-0.09946326159396085
-0.10640284510564146
-0.11296705991229383
-0.11904823122091612
-0.12454083938454524
-0.12934151990226772
-0.13334906341920982
-0.13646441572654577
-0.1385906777614913
-0.13963310560730868
-0.13949911049330294
-0.13809825879482407
-0.13534227203326693
-0.13114502687606905
-0.12542255513671496
-0.11809304377472951
-0.10907683489568765
-0.09829642575120112
-0.08567646873893509
-0.07114377140258837
-0.05462729643191633
-0.03605816166270498
-0.015369640076800029
0.007502840197925853
0.032621695887536384
0.060047188572072085
0.08983742468550604
0.1220630021508533
0.15694573285406033
0.19437080717778044
0.23410793813883235
0.275921229495833
0.3195691757491276
0.36480466214086416
0.4113749646549151
0.4590217500169582
0.5074810756943942
0.5564833898964305
0.6057535315739956
0.6550107304198268
0.7039686068683807
0.7523351720959236
0.7998128280204418
0.8460983673017287
0.8908829733413014
0.9338522202824803
0.974686073010313
1.0130588871516477
1.0486394090750615
1.0810907758909307
1.1100705154513633
1.1352305463502597
1.1562171779232626
1.1726711102477974
1.1842274341430379
1.1905156311699354
1.1911587182840968
1.1858827272814074
1.1749460060567647
1.158734457475338
1.1376278892523999
1.112000013953347
1.0822184489936792
1.0486447166390565
1.0116342440052182
0.9715363630580341
0.9286943106134743
0.8834452283376845
0.8361201627468723
0.787044065207383
0.7365357919356569
0.6849081039983217
0.6324676673120556
0.5795150526436784
0.5263447356101041
0.4732450966784375
0.4204984211658299
0.36838089923957484
0.3171626259170637
0.26710760106587206
0.21847372940362741
0.17151282049809857
0.12647058876715223
0.08358665347883543
0.04309453875125124
0.005221673552643247
-0.029929393842908436
-0.06248316635920209
-0.09245753737949386
-0.11987336716526181
-0.1447578406386515
-0.16714446738243358
-0.1870730816400694
-0.2045898423156661
-0.2197472329739943
-0.2326040618404622
-0.24322546180115612
-0.2516828904028122
-0.2580541298528263
-0.2624232870192437
-0.26488079343077575
-0.26552340527678797
-0.26445420340730175
-0.26178259333299847
-0.25762430522521496
-0.25210139391594594
-0.24534223889784298
-0.23748154432421167
-0.228660339009025
-0.21902597642690377
-0.2087321347131286
-0.1979388166636329
-0.18681234973502184
-0.17552538604454343
-0.16424584046499988
-0.15304644226200187
-0.14198108267977738
-0.13110472854959848
-0.12046785832519885
-0.11011646208276471
-0.10009204152095236
-0.09043160996086136
-0.08116769234605248
-0.07232832524253946
-0.06393705683880457
-0.05601294694577491
-0.048570566996838316
-0.041620000047836614
-0.03516684077707721
-0.029212195485315173
-0.023752682095765365
-0.018780430154097583
-0.014283080828444539
-0.010243786909389208
-0.006641212809973429
-0.003449534565694967
-0.0006384398345118392
0.001826872103164956
0.003985690344466553
0.005881792364067773
0.007563444014184573
0.009083399524578206
0.010497691417685306
0.011804174247332544
0.012992873196294386
0.014075113036783993
0.015061757315094904
0.01596320835160142
0.01678940724075778
0.017549833851099927
0.01825350682524418
0.018908983579888128
0.019524360305808786
0.020107271967865326
0.02066489230499685
0.02120393383022362
0.02173064783064621
0.022250824367446242
0.022769792275886103
0.023292419165308997
0.023823111419138288
0.02436581419487882
0.02492401142411571
0.025500725812515224
0.02609851883982378
0.026719490759869013
0.027365280600559205
0.02803706616388346
0.028735564025911264
0.029461029536793026
0.030213256820760204
0.03099157877612485
0.03179486707527923
0.03262153216469699
0.033469523264932355
0.03433632837062056
0.03522050322738379
0.03612942048641815
0.037065256665835045
0.03802884414116303
0.03902100065949066
0.0400425293394685
0.04109421867130708
0.042176842516778335
0.043291160109213744
0.044437916053506665
0.045617840326110715
0.046831648275040993
0.0480800406198717
0.04936370345173918
0.050683308233340385
0.052039511798933125
0.05343295635433459
0.05486426947692424
0.0563340641156419
0.057842938590988435
0.05939147659502397
0.06098024719137107
0.06260980481521222
0.06428068927329184
0.06599342574391248
0.06774852477693999
0.06954648229379984
0.07138777958747933
0.07327288332252413
0.0752022455350429
0.07717630363270428
0.07919548039473856
0.08126018397193419
0.08337080788664297
0.0855277310327765
0.08773131767580822
0.08998191745276918
0.09227986537225441
0.09462548181441871
0.09701907253097819
0.099460928645207
0.10195132665194317
0.10449052841758422
0.10707878118008984
0.10971631754897682
0.11240335550532587
0.11514009840177808
0.1179267349625358
0.12076344492508251
0.12365488647923828
0.12660433155295503
0.12961076842879715
0.1326731661090167
0.1357904743155619
0.13896162349007146
0.1421855247938777
0.14546107010800013
0.14878713203315497
0.1521625638897487
0.1555861997178798
0.1590568542773403
0.16257332304760952
0.16613438222786348
0.16973878873696802
0.17338528021348343
0.17707257501565643
0.18079937222143072
0.18456435162844043
0.18836617375401332
0.19220347983516395
0.19607489182860394
0.19997901241073524
0.203914424977653
0.20787969364513992
0.21187336324867512
0.2158939593434286
0.2199399882042633
0.22400993682572967
0.22810227292207452
0.23221544492723556
0.2363478819948438
0.24049799399821714
0.24466417153037068
0.24884478590400938
0.2530381891515324
0.2572427140250252
0.2614566739962706
0.26567836325674166
0.26990605671760515
0.2741380100097143
0.27837245948361966
0.28260762220956237
0.2868416959774768
0.2910728592969838
0.29529927139740186
0.2995190722277399
0.3037303824566999
0.30793130347267106
0.31211991738373923
0.31629428701768103
0.3204524559219665
0.32459244836375223
0.3287122693298924
0.3328099045269308
0.3368833203811059
0.3409304640383417
0.34494926336426013
0.34893762694417296
0.3528934440830863
0.35681458480569206
0.3606988998563798
0.36454422069922954
0.36834835951801426
0.37210910921619456
0.37582424341692744
0.37949151646306045
0.3831086634171347
0.3866734000613785
0.3901834228977168
0.39363640914776454
0.397030016752831
0.4003618843739122
0.4036296313917005
0.40683085790657914
0.4099631447386247
0.4130240534276012
0.4160111262329691
0.4189218861338796
0.421753836829176
0.42450446273739106
0.4271712289967524
0.42975158146517933
0.43224294672028296
0.434642732059364
0.436948325499418
0.43915709577713125
0.4412663923488832
0.44327354539074204
0.44517586579847146
0.4469706451875257
0.44865515589305116
0.4502266509698849
0.4516823641925577
0.4530195100552914
0.4542352275128021
0.4553253555337191
0.456289073917687
0.4571270742793312
0.4578400731179487
0.4584288118175066
0.4588940566466444
0.45923659875867273
0.45945725419157335
0.4595568638679991
0.4595362935952745
0.4593964340653952
0.4591382008550281
0.45876253442551174
0.45827040012285547
0.4576627881777404
0.4569407137055185
0.4561052167062135
0.45515736206452007
0.45409823954980444
0.45292896381610337
0.4516506744021267
0.450264535731254
0.4487717371115364
0.44717349273569573
0.4454710416811276
0.4436656479098965
0.44175860026873903
0.4397512124890619
0.43764482318694586
0.4354407958631411
0.4331405189030689
0.4307454055768214
0.4282568940391649
0.425676447329534
0.42300555337203594
0.42024572497544754
0.41739849983322075
0.41446544052347545
0.4114481345090035
0.4083481941372674
0.4051672566404042
0.40190698413521897
0.398569063623189
0.3951552069904629
0.391667151007859
0.38810665733087213
0.3844755124996627
0.380775527939065
0.37700853995858263
0.3731764097523952
0.3692810233993489
0.3653242918629631
0.3613081509914259
0.357234561517603
0.3531055090590255
0.3489230041178978
0.3446890820810934
0.34040580322016323
0.33607525269132354
0.3316995405354639
0.3272808016781432
0.32282119592959746
0.31832290798472807
0.3137881474231099
0.3092191487089868
0.30461817119128054
0.29998749910357725
0.29532944156413743
0.2906463325758898
0.2859405310264411
0.28121442068806357
0.2764704102177018
0.27171093315697037
0.2669384479321615
0.2621554378542318
0.2573644111188119
0.2525679008062012
0.24776846488137716
0.2429686861939817
0.2381711724783303
0.2333785563534081
0.2285934953228772
0.22381867177506543
0.2190567929829731
0.2143105911042702
0.20958282318130483
0.20487627114108942
0.20019374179530958
0.19553806684032105
0.19091210285715632
0.18631873131151333
0.18176085855376323
0.1772414158189467
0.17276335922678143
0.16832966978165065
0.16394335337261068
0.1596074407733873
0.15532498764238367
0.15109436267925336
0.14691178443033515
0.14277762939235428
0.1386922586408217
0.1346560159375122
0.13066922773047052
0.12673220315400913
0.12284523402871428
0.11900859486143567
0.1152225428452942
0.11148731785967714
0.10780314247024614
0.10417022192892655
0.10058874417391428
0.0970588798296722
0.09358078220693727
0.09015458730271009
0.0867804138002618
0.08345836306913135
0.08018851916513009
0.07697094883033456
0.07380570149309124
0.07069280926801408
0.06763228695599027
0.06462413204417139
0.06166832470597938
0.05876482780110365
0.05591358687550657
0.05311453016141504
0.050367568577326605
0.04767259572800592
0.04502948790449057
0.042438104084082995
0.03989828593035599
0.037409857793149814
0.03497262670857709
0.03258638239901568
0.030250897273113808
0.027965926425787213
0.02573120763822362
0.023546461377876582
0.021411390798469265
0.01932568173999316
0.017289002728711145
0.015301004977152033
0.013361322384114638
0.011469571534665768
0.009625351700143336
0.007828244838151921
0.0060778155925652055
0.004373611293525925
0.002715161957446921
0.0011019802870083084
-0.00046643832884069036
-0.0019906158148824127
-0.0034710914096282575
-0.0049084216653230706
-0.006303180447941925
-0.007655958937191953
-0.008967365626509294
-0.01023802632306342
-0.01146858414775409
-0.012659699535212676
-0.013812050233800555
-0.01492633130561144
-0.016003255126469773
-0.017043551385931777
-0.01804796708728318
-0.019017266547542433
-0.01995223139745872
-0.020853660581512334
-0.021722370357915077
-0.022559194298608864
-0.023364983289267616
-0.02414060552929642
-0.024886946531831655
-0.025604909123739916
-0.026295413445619864
-0.026959396951801107
-0.027597814410344756
-0.028211637903042097
-0.02880185682541625
-0.029369477886721562
-0.029915525109943664
-0.030441039831798578
-0.030947080702734164
-0.031434723686929344
-0.03190506206229432
-0.032359206420469744
-0.03279828466682827
-0.03322344202047339
-0.033635425971446864
-0.03403171959326323
-0.034412023432737415
-0.03477675831648119
-0.03512633930664627
-0.03546117570092394
-0.03578167103254598
-0.03608822307028381
-0.036381223818449215
-0.03666105951689319
-0.03692811064100754
-0.03718275190172349
-0.03742535224551258
-0.037656274854385885
-0.0378758771458948
-0.03808451077313052
-0.03828252162472445
-0.03847024982484759
-0.03864802973321119
-0.03881618994506619
-0.03897505329120393
-0.03912493683795537
-0.03926615188719135
-0.039399003976323066
-0.03952379287830138
-0.03964081260161717
-0.03975035139030125
-0.03985269172392458
-0.039948110317597985
-0.040036878121971986
-0.04011926032323759
-0.04019551634312535
-0.040265899838905994
-0.04033065870339009
-0.040390035064928276
-0.040444265287411074
-0.040493579970269034
-0.040538203948472684
-0.04057835629253237
-0.04061425030849852
-0.04064609353796167
-0.04067408775805198
-0.04069842898143994
-0.04071930745633556
-0.04073690766648935
-0.04075140833119145
-0.040762982405271986
-0.04077179707910106
-0.04077801377858892
-0.04078178816518552
-0.040783270135880956
-0.040782603823205144
-0.04077992759522803
-0.0407753740555597
-0.04076907004334995
-0.040761136633288675
-0.04075168913560562
-0.04074083709607074
-0.04072868429599358
-0.040715328752224
-0.040700862717151565
-0.040685372678706144
-0.04066893936035715
-0.04065163772111424
-0.04063353695552696
-0.04061470049368482
-0.040595186001217254
-0.040575045379293795
-0.04055432476462373
-0.04053306452945654
-0.040511299281581536
-0.04048905786432799
-0.04046636335656517
-0.04044323307270237
-0.04041967856268869
-0.04039570561201339
-0.04037131424170548
-0.04034649870833423
-0.04032124750400862
-0.04029554335637747
-0.04026936322863006
-0.04024267831949524
-0.040215454063241896
-0.04018765012967901
-0.04015922042415526
-0.040130113087559593
-0.040100270496320756
-0.04006962926240748
-0.04003808701113265
-0.04000526913587338
-0.039971161373453246
-0.0399358538768424
-0.039899434914446974
-0.03986199087010961
-0.03982360624310899
-0.03978436364816029
-0.039744343815414696
-0.0397036255904597
-0.03966228593431931
-0.03962039992345334
-0.03957804074975807
-0.0395352797205662
-0.03949218625864648
-0.03944882790220389
-0.039405270304879836
-0.03936157723575173
-0.03931781057933348
-0.03927403033557508
-0.03923029461986283
-0.03918665966301926
-0.03914317981130333
-0.039099907526409905
-0.039056893385470415
-0.03901418608105228
-0.03897183242115948
-0.03892987732923198
-0.03888836384414607
-0.03884733312021432
-0.03880682442718564
-0.03876687515024502
-0.03872752079001379
-0.0386887949625494
-0.038650729399345884
-0.03861335394733317
-0.03857669656887758
-0.03854078334178174
-0.0385056384592844
-0.03847128423006074
-0.038437741078222065
-0.03840502754331582
-0.038373160280325946
-0.03834215405967256
-0.03831202176721188
-0.03828277440423655
-0.0382544210874754
-0.03822696904909356
-0.03820042363669224
-0.038174788313309116
-0.038150064657418103
-0.0381262523629291
-0.03810334923918851
-0.03808135121097905
-0.03806025231851934
-0.03804004471746464
-0.03802071867890633
-0.03800226258937184
-0.0379846629508252
-0.03796790438066633
-0.037951969611731695
-0.03793683949229387
-0.03792249298606165
-0.03790890717218026
-0.037896057245230985
-0.037883916515231375
-0.03787245640763531
-0.037861646463332954
-0.03785145433865067
-0.03784184580535094
-0.03783278475063273
-0.03782423317713124
-0.03781615120291776
-0.03780849706149969
-0.03780122710182121
-0.03779429578826232
-0.037787655700639355
-0.037781257534204915
-0.03777505009964793
-0.037768980323093504
-0.03776299324610305
-0.0377570320256741
-0.03775103793424062
-0.03774495035967268
-0.03773870680527669
-0.03773224288979515
-0.03772549234740724
-0.037718387027727784
-0.037710856895808276
-0.03770283003213637
-0.03769423263263588
-0.03768498900866718
-0.03767502158702629
-0.03766425090994613
-0.03765259563509543
-0.03763997253557949
-0.03762629649993954
-0.037611480532153296
-0.037595435751634654
-0.037578071393233714
-0.037559294807236965
-0.037539011459366944
-0.03751712493078263
-0.03749353691807916
-0.037468147233287896
-0.03744085380387652
-0.03741155267274893
-0.0373801379982453
-0.03734650205414197
-0.037310535229651665
-0.03727212602942326
-0.03723116107354202
-0.03718752509752915
-0.03714110095234241
-0.03709176960437588
-0.03703941013545947
-0.036983899742859705
-0.0369251137392792
-0.03686292555285697
-0.036797206727168186
-0.03672782692122417
-0.036654653909472534
-0.03657755358179737
-0.03649638994351884
-0.03641102511539329
-0.03632131933361338
-0.03622713094980812
-0.036128316431042584
-0.03602473035981829
-0.03591622543407291
-0.035802652467180396
-0.03568386038795085
-0.03555969624063077
-0.035430005184902746
-0.03529877789242697
-0.035173521378950356
-0.03505207248512504
-0.0349319895594849
-0.03481087112522119
-0.034686355880182096
-0.034556122696873304
-0.034417890622457425
-0.03426941887875462
-0.03410850686224187
-0.03393299414405371
-0.03374076046998148
-0.033529725760474305
-0.033297850110637905
-0.03304313379023549
-0.03276361724368759
-0.03245738109007157
-0.03212254612312254
-0.03175727331123235
-0.0313597637974502
-0.030928258899482364
-0.03046104010969286
-0.029956429095102266
-0.029412787697388698
-0.0288285179328871
-0.028202061992590455
-0.027531902242148132
-0.026816561221866986
-0.02605460164671075
-0.025244626406301374
-0.0243852785649169
-0.023475241361493204
-0.022513238209622533
-0.02149803269755607
-0.020428428588200376
-0.019303269819120228
-0.018121440502536612
-0.016881864925329504
-0.015583507549034703
-0.014225373009845221
-0.012806506118611116
-0.011325991860841433
-0.009782955396700377
-0.008176562061010029
-0.0065060173632491836
-0.00477056698755568
-0.0029694967927226257
-0.001102132812200951
0.0008321587459020896
0.00283397149881931
0.004903858889128976
0.007042334184751364
0.00924987047895054
0.0115269006903303
0.013873817562840174
0.01629097366577159
0.018778681393759877
0.021337212966779873
0.02396680043015237
0.026667635654539945
0.02943987033594936
0.032283615995726156
0.0351989439805625
0.0381858854624923
0.04124443143889345
0.044374532732482375
0.04757609999132295
0.05084900368881984
0.05419307412372226
0.05760810142011791
0.06109383552744152
0.06464998622046925
0.06827622309932152
0.07197217558945695
0.07573743294168161
0.0795715442321428
0.08347401836233231
0.0874443240590797
0.09148188987456224
0.09558655343526617
0.09976141171172476
0.10400031166536294
0.10829468707238354
0.11263611762543335
0.11701632893360758
0.12142719252244216
0.1258607258339245
0.13030909222648657
0.13476460097500886
0.1392197072708118
0.143667012221668
0.14809926285179453
0.15250935210185645
0.15689031882895932
0.16123534780666082
0.16553776972496315
0.16979106119031595
0.17398884472561005
0.17812488877018817
0.18219310767983699
0.18618756172679152
0.1901024570997274
0.1939321459037725
0.19767112616049842
0.20131404180792478
0.2048556827005129
0.20829098460917506
0.21161502922126785
0.21482304414059605
0.21791040288740604
0.22087262489839454
0.223705375526704
0.2264044660419231
0.22896585363008404
0.23138564139366835
0.23366007835160307
0.23578555943926205
0.23775862550846272
0.23957596332747144
0.24123440558100007
0.24273093087020714
0.2440626637126957
0.24522687454251668
0.2462209797101672
0.2470425414825902
0.24768926804317437
0.2481590134917555
0.2484497778446153
0.24855970703448171
0.24848709291052884
0.24823037323837716
0.2477881317000934
0.24715909789418988
0.24634214733562665
0.24533630145580876
0.24414072760258776
0.24275473904026101
0.2411777949495737
0.2394072809931107
0.2374416630669417
0.23528845112348384
0.23295538803170768
0.2304501184221297
0.2277801886868055
0.2249530469793345
0.22197604321485664
0.21885642907005887
0.2156013579831665
0.21221788515394835
0.20871296754371427
0.20509346387532146
0.20136613463316466
0.1975376420631827
0.193614550172855
0.1896033247312089
0.18551033326880872
0.1813418450777632
0.17710403121172147
0.17280296448588062
0.1684446194769751
0.1640348725232832
0.15957950172462365
0.15508418694236403
0.150554509799408
0.1459959536802038
0.14141390373074014
0.13681364685855435
0.1322003717327198
0.12757916878385456
0.12295503020411724
0.11833284994721494
0.11371742372839078
0.10911344902443276
0.1045255250736693
0.09995815287597704
0.09541573519276925
0.09090257654700373
0.08642288322317843
0.08198076326734
0.07758022648707152
0.07322518445150045
0.06891945049129489
0.06466673969867104
0.06047066892738173
0.05633475679272448
0.052262423671537106
0.048256991702205265
0.044321684784652204
0.04045962858034474
0.036673850512290884
0.032967279765046154
0.02934274728470304
0.02580298577889878
0.022350629716810955
0.018988215329164615
0.015718180608222554
0.012542890057433753
0.009464931726359815
0.006484318661935051
0.0036000207565311526
0.0008108450939969813
-0.0018845640503437622
-0.0044877252096874876
-0.0070003197257585414
-0.009424191748804045
-0.011761348237596114
-0.014013958959427641
-0.016184356490118845
-0.018275036214012774
-0.020288656323977472
-0.022228037821402258
-0.02409616451620311
-0.025896183026819175
-0.02763140278021431
-0.029305296011874205
-0.030921497765810824
-0.03248380589455924
-0.03399618105917929
-0.035462746729252814
-0.03688778918288771
-0.03827575750671525
-0.03963126359589114
-0.04095908215409344
-0.042264150693526015
-0.04355156953491601
-0.0448266018075153
-0.046094673449097956
-0.04736137320596384
-0.048632452632936196
-0.04991382609336292
-0.0512115707591142
-0.05253192661058581
-0.053881296436697035
-0.055266245834891925
-0.05669350321113642
-0.058169959779922675
-0.05970266956426584
-0.06129884939570607
-0.06296587891430527
-0.06471130056865154
-0.06654281961585629
-0.06846830412155569
-0.07049578495990738
-0.0726334558135957
-0.07488967317382811
-0.07727295634033704
-0.07979198742137578
-0.08245561133372481
-0.08527283580268769
-0.08825283136209305
-0.09140493135428979
-0.09473863193015458
-0.09826359204908713
-0.10198963347901246
-0.10592674079637482
-0.11008506138614726
-0.11447490544182531
-0.11910674596543064
-0.12399121876750269
-0.12913912246711096
-0.13456141849184694
-0.14026923107782896
-0.14627384726969134
-0.15258671692060027
-0.15921945269224327
-0.16618383005483514
-0.1734173568546819
-0.1807333953121003
-0.18799166863221248
-0.19505656356034975
-0.20179661435301433
-0.2080845027778668
-0.21379705811374475
-0.21881525715065017
-0.2230242241897545
-0.2263132310433913
-0.2285756970350676
-0.22970918899945617
-0.22961542128239687
-0.22820025574089772
-0.22537370174313465
-0.2210499161684508
-0.2151472034073542
-0.20758801536152854
-0.19829895144381776
-0.18721075857823577
-0.17425833119995782
-0.15938071125534456
-0.14252108820190756
-0.12362679900833101
-0.10264932815445749
-0.0795443076313252
-0.05427151694111271
-0.02679488309717515
0.0029175193759787277
0.03489346844263175
0.06915659455593925
0.1057263806578751
0.14470142072442993
0.1865591024776576
0.2309907954511844
0.2775444355058413
0.3257811931208193
0.37527547339358147
0.42561491603999235
0.4764003953942333
0.5272460204088447
0.5777791346546374
0.627640316320827
0.6764833782149439
0.723975367762877
0.7697965670087888
0.8136404926152437
0.855213895863122
0.8942367626516573
0.9304423134983696
0.9635770035391696
0.9934005225282859
1.0196857948382974
1.0422189794600842
1.0607994700029013
1.075239894694327
1.085366116380281
1.091017232525009
1.0920455752111065
1.0883167111395036
1.07970944162946
1.0661158026185875
1.047441064662824
1.0236037329364476
0.9946288832509028
0.9610428198346562
0.923383138273295
0.8821538647387223
0.8378390950309328
0.7909029945780924
0.7417897984364189
0.6909238112902615
0.6387094074520557
0.5855310308624203
0.5317531950900138
0.4777204833316302
0.42375754841214996
0.37016911278463793
0.31723996853019676
0.26523497735806556
0.21439907060557117
0.16495724923822053
0.11711458384956241
0.07105621466128104
0.026947351523152197
-0.015066726086879756
-0.054860669062817
-0.09232905867053076
-0.1273864065477966
-0.15996715470423256
-0.19002567552139193
-0.21753627175270152
-0.24249317652348693
-0.26491055333092994
-0.2846926665986182
-0.30152831850615375
-0.31557112021925093
-0.32700516789456
-0.3360092253433866
-0.3427567240316657
-0.34741576307997063
-0.35014910926350495
-0.3511141970121153
-0.3504631284102823
-0.34834267319712137
-0.3448942687663876
-0.34025402016646966
-0.3345527001003935
-0.327915748925818
-0.3204632746550474
-0.31231005295501396
-0.30356552714728835
-0.2943338082080742
-0.28471367476822323
-0.27479857311321154
-0.26467661718315544
-0.2544305885728032
-0.24413793653155275
-0.23387077796342504
-0.22369589742708182
-0.21367474713581674
-0.20386344695757275
-0.19431278441491642
-0.18506821468505436
-0.17616986059982628
-0.16765251264571956
-0.15954562896384616
-0.1518733353499585
-0.144654425254442
-0.13790235978232807
-0.13162526769327465
-0.12582594540157926
-0.12050185697617594
-0.11564513414063265
-0.11124257627316086
-0.1072756504066007
-0.1037204912284313
-0.10054790108076728
-0.09769930122321252
-0.09511434677958264
-0.09277419414211885
-0.09066086992731842
-0.08875699338689724
-0.08704577640778388
-0.08551102351212353
-0.08413713185727661
-0.08290909123582091
-0.08181248407554803
-0.08083348543946589
-0.07995886302579769
-0.07917597716798352
-0.07847278083467774
-0.07783781962975117
-0.07726023179228964
-0.07672974819659556
-0.07623669235218639
-0.07577198040379518
-0.0753271211313708
-0.07489421595007822
-0.07446595891029739
-0.07403563669762431
-0.07359712863287032
-0.07314490667206308
-0.07267403540644524
-0.07218017206247551
-0.0716595665018277
-0.07110906122139232
-0.0705260913532747
-0.069908684664796
-0.06925546155849294
-0.0685656350721186
-0.06783901087864092
-0.06707598728624392
-0.06627755523832668
-0.0654452983135052
-0.06458139272560992
-0.06368860732368764
-0.06277030359199998
-0.06183043565002577
-0.06087355025245811
-0.059904786789206244
-0.05892957171274449
-0.05793562283743314
-0.056913153865126465
-0.055861221422262686
-0.05477890426745213
-0.05366530329147845
-0.052519541517296486
-0.05134076410003352
-0.0501281383269887
-0.04888085361763511
-0.047598121523616366
-0.046279175728748845
-0.04492327204902086
-0.04352968843259453
-0.04209772495980241
-0.04062670384315009
-0.03911596942731471
-0.037564888189147716
-0.03597284873767065
-0.03433926181407815
-0.03266356029173634
-0.030945199176185767
-0.029183655605137082
-0.0273784288484738
-0.025529040308251205
-0.023635033518699
-0.021695974146216823
-0.01971144998937735
-0.01768107097892463
-0.015604469177777747
-0.013481298781025164
-0.011311236115928769
-0.00909397964192149
-0.006829249950611738
-0.004516789765776907
-0.0021563639433678228
0.00025224052849331935
0.002709214529509285
0.005214726807213466
0.007768923976965936
0.010371930521955841
0.013023848793196346
0.015724759009531908
0.01847471925763372
0.021273765492001884
0.024121911534960294
0.027019149076664528
0.029965447675096624
0.03296075475606769
0.03600499561321263
0.03909807340799776
0.04223986916971628
0.0454302417954901
0.04866902805026496
0.05195604256681852
0.05529107784575443
0.058674326801182175
0.062107935726775754
0.06559122229942455
0.06912294524149187
0.07270184038363298
0.07632662066478907
0.07999597613219683
0.08370857394138193
0.0874630583561628
0.0912580507486428
0.09509214959922169
0.09896393049658764
0.10287194613772166
0.10681472632789013
0.11079077798065506
0.11479858511786767
0.11883660886967162
0.12290328747449575
0.12699703627906478
0.1311162477383928
0.13525929141578596
0.13942451398283584
0.14361023921943006
0.14781476801374505
0.15203637836224804
0.15627332536969873
0.16052384124914176
0.16478613532191844
0.16905839401765843
0.173338780874284
0.1776254365380029
0.18191647876331862
0.18621000241302388
0.19050407945820347
0.19479675897822757
0.19908606716076283
0.20337000730176436
0.20764655980547975
0.21191368218444206
0.21616930905948017
0.22041135215971197
0.22463770032254804
0.22884621949368378
0.23303475272711105
0.2372011201851102
0.24134311913825468
0.24545852396540235
0.24954508615370796
0.2536005342986145
0.2576225741038578
0.2616088883814589
0.2655571370517348
0.26946495714329166
0.27332996279302724
0.2771497452461261
0.2809218728560675
0.28464389108462007
0.2883133225018448
0.2919276667860884
0.29548440072399307
0.2989809782104903
0.30241483024880333
0.3057833649504419
0.30908396753521095
0.31231400033120427
0.315470802774808
0.3185516914106945
0.32155395989183166
0.3244748789794756
0.32731169654317527
0.3300616375607659
0.33272190411837754
0.33528967541042964
0.3377621077396332
0.34013633451698677
0.34240991306378876
0.34458429415482694
0.3466587854153167
0.34863193009369786
0.35050234191937135
0.3522687051026949
0.35392977433498496
0.3554843747885139
0.35693140211651453
0.35826982245317673
0.35949867241364875
0.36061705909403574
0.3616241600714021
0.36251922340376985
0.36330156763011967
0.36397058177038843
0.364525725325473
0.3649665282772274
0.3652925910884639
0.3655035847029524
0.3655992505454212
0.3655794005215567
0.36544391701800294
0.3651927529023625
0.36482593152319565
0.36434354671002045
0.3637457627733133
0.3630328145045091
0.362205007176
0.3612627165411365
0.3602063888342264
0.35903654077053737
0.3577537595462934
0.3563587028386771
0.35485209880582846
0.35323474608684746
0.3515075138017899
0.34967134155167046
0.3477272394184612
0.3456762879650944
0.34351963823545795
0.3412585117543988
0.33889420052772057
0.3364280670421884
0.33386154426552195
0.33119613564640005
0.32843341511445856
0.32557502708029473
0.32262268643546044
0.31957817855246673
0.31644335928478107
0.31322015496683353
0.3099105624140076
0.3065166489226464
0.3030405522700498
0.29948448071447964
0.2958507129951521
0.29214159833224196
0.28835955642688094
0.28450707746116366
0.28058672209813784
0.2766011214818107
0.2725529772371459
0.2684450614700704
0.2642802167674638
0.26006135619716564
0.2557914633079713
0.25147359212964016
0.247110867172884
0.24270648342937418
0.23826370637173833
0.23378587195356815
0.22927638660940708
0.22473872725475907
0.2201764412860835
0.21559259816557952
0.21098388128410417
0.20635121330684147
0.20169741919764272
0.19702527334527675
0.19233749956343893
0.18763677109073784
0.18292571059070495
0.17820689015178892
0.17348283128736508
0.1687560049357224
0.16402883146007186
0.1593036806485425
0.1545828717141896
0.149868673294982
0.1451633034538109
0.140468929678485
0.13578766888173988
0.13112158740122426
0.12647270099950936
0.12184297486408402
0.11723432360736363
0.11264861126667713
0.10808765130427556
0.10355320660732792
0.09904698948792945
0.0945706616830892
0.0901258343547382
0.08571406808972559
0.08133687289982622
0.07699570822172958
0.07269198291704648
0.06842705527230619
0.0642022329989636
0.060018773233387945
0.05587788253687026
0.051780716895619805
0.04772838172077137
0.04372193184837425
0.0397623715393996
0.03585065447973668
0.03198768378020023
0.02817431197651943
0.0244113410293455
0.020699522324247932
0.017039556671721134
0.013432094307174569
0.00987773489093935
0.006377027508265021
0.002930470669325891
-0.00046148769078857566
-0.0037984502120671504
-0.007080070109580172
-0.010306051173473663
-0.013476147768977764
-0.016590164836401577
-0.01964795789113516
-0.02264943302364464
-0.025594546899480375
-0.02848330675927102
-0.031315770418726796
-0.03409204626863399
-0.036812293274862795
-0.03947672097836186
-0.04208558949516139
-0.044639209516367906
-0.047137942308171255
-0.04958219971184041
-0.051972444143725094
-0.054309188595252134
-0.056592996632931436
-0.05882448239835192
-0.06100431060818312
-0.0631331965541721
-0.06521190610314859
-0.06724125569702138
-0.06922211235278031
-0.0711553936624923
-0.07304206779330707
-0.0748808806847957
-0.07666960764678465
-0.07840913592464366
-0.08010036592079672
-0.08174418928597216
-0.08334148891920495
-0.08489313896783324
-0.0864000048275031
-0.0878629431421653
-0.08928280180407683
-0.09066041995379848
-0.09199662798019825
-0.09329224752044935
-0.0945480914600309
-0.0957649639327261
-0.09694366032062529
-0.0980849672541238
-0.09918966261192297
-0.10025851552102849
-0.10129228635675275
-0.10229172674271347
-0.1032575795508342
-0.10419057890134292
-0.10509145016277444
-0.10596090995196855
-0.1067996661340711
-0.10760841782253244
-0.1083878553791095
-0.1091386604138645
-0.10986150578516551
-0.11055705559968515
-0.11122596521240258
-0.11186888122660227
-0.11248644149387454
-0.11307927511411442
-0.11364800243552325
-0.11419323505460799
-0.11471557581618075
-0.11521561881335923
-0.115693949387567
-0.116151144128533
-0.11658777087429206
-0.11700438871118374
-0.11740154797385405
-0.11777979024525431
-0.11813964835664137
-0.11848164638757741
-0.11880629966593037
-0.11911411476787398
-0.11940558951788732
-0.119681212988755
-0.11994146550156715
-0.12018681862571962
-0.1204177351789138
-0.12063466922715671
-0.12083806608476066
-0.12102836231434383
-0.12120598572682989
-0.12137135538144805
-0.12152488158573294
-0.121666965895525
-0.12179800111497008
-0.12191837129651978
-0.12202845174093097
-0.12212860899726641
-0.12221920086289412
-0.12230057638348801
-0.12237307585302731
-0.12243703081379687
-0.12249276405638726
-0.12254058961969433
-0.12258081279091981
-0.1226137301055707
-0.12263962934745987
-0.12265878954870552
-0.12267148098973146
-0.12267796519926727
-0.12267849495434768
-0.12267331428031358
-0.12266265845081081
-0.12264675398779129
-0.12262581866151206
-0.1226000614905361
-0.12256968274173174
-0.12253487393027296
-0.12249581781963925
-0.12245268842161577
-0.12240565099629325
-0.12235486205206769
-0.12230046934564115
-0.12224261188202085
-0.12218141991451975
-0.12211701494475635
-0.12204950972265483
-0.12197900824644464
-0.12190560576266118
-0.12182942893603543
-0.12175115308967915
-0.12167102910641903
-0.12158910127231581
-0.12150541335505005
-0.12142000860392144
-0.12133292974984938
-0.1212442190053728
-0.12115391806464987
-0.12106206810345843
-0.12096870977919566
-0.1208738832308785
-0.12077762807914305
-0.12067998342624503
-0.12058098785605964
-0.12048067943408158
-0.12037909570742505
-0.12027627370482352
-0.12017224993663023
-0.12006706039481779
-0.11996074055297828
-0.1198533253663232
-0.11974484927168355
-0.1196353461875101
-0.1195248495138726
-0.1194133921324606
-0.11930100640658309
-0.11918772418116858
-0.11907357678276487
-0.11895859501953954
-0.11884280918127921
-0.1187262490393905
-0.11860894384689924
-0.11849092233845065
-0.11837221273030968
-0.11825284272036052
-0.11813283948810704
-0.1180122296946724
-0.11789103948279939
-0.1177692944768503
-0.11764701978280667
-0.11752423998826989
-0.1174009791624604
-0.11727726085621859
-0.11715310810200391
-0.11702854341389551
-0.11690358878759205
-0.11677826570041155
-0.11665259511129156
-0.11652659746078914
-0.11640029267108065
-0.11627370014596239
-0.11614683877084964
-0.1160197269127774
-0.11589238242040001
-0.11576482262399157
-0.1156370643354454
-0.11550912384827439
-0.11538101693761083
-0.1152527588602067
-0.11512436435443324
-0.11499584764028137
-0.11486722241936115
-0.11473850187490259
-0.1146096986717548
-0.11448082495638667
-0.11435189235688614
-0.11422291198296114
-0.11409389442593887
-0.11396484975876592
-0.11383578753600826
-0.11370671679385175
-0.1135776460501014
-0.11344858330418184
-0.11331953603713696
-0.1131905112116306
-0.11306151527194558
-0.1129325541439844
-0.1128036332352691
-0.11267475743494121
-0.11254593111376165
-0.1124171581241108
-0.11228844179998859
-0.11215978495701445
-0.11203118989242727
-0.11190265838508534
-0.11177419169546654
-0.11164579056566815
-0.11151745521940704
-0.11138918536201953
-0.11126098018046121
-0.11113283834330745
-0.11100475800075293
-0.11087673678461196
-0.11074877180831816
-0.11062085966692459
-0.11049299643710409
-0.11036517767714871
-0.11023739842697
-0.11010965320809907
-0.10998193602368667
-0.10985424035850266
-0.1097265591789367
-0.10959888493299763
-0.1094712095503142
-0.10934352444213424
-0.10921582050132528
-0.10908808810237408
-0.10896031710138726
-0.10883249683609081
-0.10870461612582982
-0.1085766632715694
-0.10844862605589378
-0.1083204917430069
-0.10819224707873204
-0.10806387829051184
-0.1079353710874087
-0.10780671066010444
-0.10767788168090031
-0.10754886830371674
-0.10741965416409427
-0.1072902223791925
-0.10716055554779047
-0.10703063575028682
-0.10690044454869985
-0.10676996298666708
-0.10663917158944558
-0.10650805036391187
-0.10637657879856205
-0.10624473586351169
-0.106111864032499
-0.10597548343668212
-0.1058357267065998
-0.1056930064694186
-0.10554770773816813
-0.1054001879117401
-0.10525077677488914
-0.10509977649823232
-0.1049474616382492
-0.10479407913728178
-0.10463984832353496
-0.10448496091107601
-0.10432958099983475
-0.10417384507560346
-0.10401786201003721
-0.1038617130606535
-0.10370545187083241
-0.10354910446981647
-0.10339266927271085
-0.10323611708048341
-0.10307939107996444
-0.10292240684384657
-0.10276505233068556
-0.10260718788489914
-0.10244864623676786
-0.10228923250243482
-0.10212872418390573
-0.10196687116904873
-0.10180339573159464
-0.10163799253113659
-0.10147032861313071
-0.10130004340889531
-0.1011267487356114
-0.10095002879632242
-0.10076944017993467
-0.10058451186121664
-0.10039474520079972
-0.10019961394517746
-0.09999856422670639
-0.09979101456360545
-0.09957635585995589
-0.0993539514057018
-0.09912313687664981
-0.098883220334469
-0.0986334822266911
-0.09837317538671025
-0.09810152503378333
-0.09781772877302969
-0.09752095659543131
-0.09721035087783236
-0.09688502638294039
-0.0965440702593246
-0.09618654204141719
-0.09581147364951281
-0.09541786938976898
-0.0950047059542054
-0.09457093242070441
-0.09411547025301065
-0.09363721330073227
-0.09313502779933885
-0.09260775237016322
-0.09205419802040016
-0.09147314814310786
-0.09086335851720656
-0.09022355730747889
-0.08955244506457
-0.08884869472498852
-0.0881109516111046
-0.08733783343115137
-0.08652793027922401
-0.08567980463528152
-0.08479199136514426
-0.08386299772049549
-0.08289130333888073
-0.08187536024370912
-0.08081359284425138
-0.07970439793564088
-0.07854614469887328
-0.07733717470080831
-0.07608061269338723
-0.07477965466076075
-0.0734306123030602
-0.07202995050392946
-0.07057431429825434
-0.06906052887215902
-0.06748559956300887
-0.06584671185940855
-0.06414123140120515
-0.06236670397948413
-0.06052085553657166
-0.0586015921660335
-0.05660700011267816
-0.054535345772551924
-0.05238507569294215
-0.05015481657237558
-0.047843375260622045
-0.04544973875868891
-0.042973074218824514
-0.04041272894451653
-0.037768230390496316
-0.03503928616273211
-0.0322257840184334
-0.029327791866048725
-0.02634555776527092
-0.02327950992702904
-0.020130256713493944
-0.016898586638074975
-0.01358546836542629
-0.010192050711437972
-0.006719662643241919
-0.0031698132792085665
0.00045580811104667385
0.004155332106672516
0.00792670913557636
0.011767709474426458
0.01567592324864614
0.019648760432423307
0.02368345084870399
0.02777704416919563
0.03192640991436024
0.03612823745342458
0.04037903600437359
0.04467513463395395
0.049012682257666085
0.05338764763977605
0.05779581939330741
0.062232805980045824
0.06669403571053067
0.07117475674406681
0.07567003708871683
0.08017476460130518
0.08468364698741021
0.08919121180137557
0.09369180644630282
0.09817959817405547
0.10264857408525041
0.10709254112927025
0.11150512610425589
0.11587977565710916
0.12020975628348618
0.12448815432780858
0.12870787598325584
0.13286344744321044
0.13695702205083604
0.14098149787292158
0.14492844243083947
0.14878973650440208
0.15255757413185544
0.15622446260988898
0.1597832224936293
0.163226987596643
0.1665492049909304
0.16974363500693535
0.17280435123353832
0.17572574051806
0.17850250296625547
0.18112965194232222
0.18360251406889527
0.18591672922704905
0.1880682505562934
0.19005334445457978
0.19186859057829753
0.19351088184227472
0.19497742441977617
0.19626573774250733
0.1973736545006115
0.19829932064267075
0.19904119537570486
0.19959805116517304
0.1999689737349728
0.20015336206744005
0.20015092840334936
0.1999616982419139
0.1995860103407855
0.19902451671605392
0.1982781826422484
0.19734828665233628
0.19623642053772317
0.19494448934825293
0.19347471139220984
0.19182961823631484
0.1900120547057279
0.1880251788840469
0.18587246211331054
0.18355768899399394
0.18108495738501118
0.178458678403714
0.17568357642589605
0.17276468908578635
0.16970736727605296
0.1665168557497667
0.16319091136455322
0.15973422561607897
0.15615511743609944
0.152461748212254
0.14866212178807192
0.14476408446296318
0.140775324992225
0.13670337458703785
0.132555606914473
0.12833923809748216
0.12406132671490377
0.11972877380145985
0.11534832284776364
0.11092655980030819
0.10646991306147346
0.10198465348952501
0.09747689439861196
0.09295259155877467
0.08841754319593265
0.08387738999189348
0.07933761508434733
0.07480354406687634
0.07028034498894176
0.06577302835589238
0.06128644712896031
0.05682529672526904
0.05239411501782154
0.04799728233550821
0.04363902146310267
0.039323397641269964
0.03505431856655472
0.030835534391388697
0.026670637724087454
0.02256306362885735
0.018516089625784604
0.014532835690842738
0.010616264255888797
0.006769180208670678
0.002994230892816141
-0.0007060938921596982
-0.004329461890857922
-0.007873698391989425
-0.011336786228384743
-0.01471686577698711
-0.018012234958856066
-0.021221349239161136
-0.02434282162719087
-0.02737542267634735
-0.030305720405667758
-0.033122845408727786
-0.03582993333179374
-0.03843020043283907
-0.04092694333105795
-0.04332353900686109
-0.04562344480188174
-0.04783019841897235
-0.049947417922205306
-0.051978801736870306
-0.05392812864947927
-0.05579925780776307
-0.05759612872067271
-0.059322761258376766
-0.06098325565226559
-0.06258179249494866
-0.06412263274025576
-0.06561011770323394
-0.0670486690601525
-0.06844278884849925
-0.06979705946698256
-0.07111614367552849
-0.0724047845952846
-0.07366780570861758
-0.0749101108591142
-0.07613668425157932
-0.07735259045203918
-0.07856297438773896
-0.07977306134714418
-0.08098815697993822
-0.08221364729702607
-0.08345499867053147
-0.08471775783379853
-0.08600755188138948
-0.08733008826908767
-0.08869115481389567
-0.09009661969403632
-0.09155243144895014
-0.0930646189792993
-0.09463929154696499
-0.09628263877504878
-0.09800093064786974
-0.09980051751096863
-0.10168783007110538
-0.10366937939626025
-0.10575175691563066
-0.10794163441963622
-0.11024576405991537
-0.11267097834932738
-0.11522419016194779
-0.11791239273307508
-0.12074265965922637
-0.1237221448981396
-0.12685808276876864
-0.13015778795129096
-0.133628655487102
-0.137278160778819
-0.14111385959027362
-0.14514338804652233
-0.14937446263383913
-0.15381488019972034
-0.1584725179528755
-0.16335533346324005
-0.1684713646619668
-0.17382872984143088
-0.17943562765521986
-0.185300337118148
-0.19143121760624693
-0.19783670885677074
-0.20452533096818476
-0.2114764424827824
-0.21851143973473688
-0.22546002310858423
-0.23216445867804655
-0.23847331453251636
-0.24424146077704398
-0.24933006953234294
-0.2536066149347811
-0.25694487313639425
-0.25922492230487687
-0.26033314262358476
-0.26016221629153347
-0.2586111275234011
-0.2555851625495264
-0.25099590961590657
-0.24476125898420614
-0.2368054029317452
-0.22705883575150645
-0.21545835375212793
-0.2019470552579248
-0.18647434060885787
-0.1689959121605541
-0.14947377428429204
-0.12787623336703802
-0.10417789781139342
-0.07835967803562932
-0.05040878647367775
-0.02031873757511743
0.011910652194770666
0.04627326435508439
0.08275667840924805
0.12134217184504204
0.16200472013453382
0.2047129967341812
0.24946773879329365
0.2967670732899178
0.3462919904027326
0.39743377568514926
0.4496119249882574
0.5022741444608677
0.5548963505494184
0.6069826699981163
0.6580654398488425
0.7077052074411979
0.755490730412416
0.8010389766974938
0.8439951245291052
0.8840325624376378
0.9208528892511257
0.9541859140953545
0.9837896563937892
1.009450345867604
1.030982422535637
1.0482285367144595
1.0610595490183288
1.0693745303592026
1.0731007619467277
1.0721937352882587
1.0666371521888416
1.0564429247512344
1.0416511753758635
1.0223302367608804
0.9985766519021485
0.9705151740931647
0.9382987669252162
0.9021086042871808
0.8621540703657188
0.8187307319109774
0.7724729435815118
0.7238724055574247
0.6733673601603912
0.6213759706427243
0.5682963211876946
0.5145064169091601
0.46036418385189604
0.4062074689914532
0.3523540402340136
0.2991015864166774
0.24672771730731835
0.1954899636044457
0.1456257769375271
0.09735252986662563
0.050867515882713765
0.006347949407531472
-0.03604903420652411
-0.0761863786761604
-0.1139471067873194
-0.14923432039526635
-0.18197120042436354
-0.21210100686831768
-0.23958707878997335
-0.2644128343214087
-0.2865817706639931
-0.3061174640882527
-0.3230635699339482
-0.3374838226101107
-0.3494620355949387
-0.35910210143590443
-0.3665279917496715
-0.3718837572221366
-0.3753335276084353
-0.3770593038457477
-0.3769842314015092
-0.3751076851423691
-0.3716111281044344
-0.3666687536305976
-0.36044748537055515
-0.3531069772808032
-0.34479961362461264
-0.33567050897206874
-0.32585750820005466
-0.3154911864922223
-0.30469484933905416
-0.2935845325377904
-0.282269002192495
-0.2708497547140276
-0.2594210168200125
-0.2480697455348995
-0.23687562818993316
-0.22591108242312335
-0.21524125617931428
-0.2049240277101069
-0.19501000557392575
-0.18554252863598916
-0.17655766606828532
-0.16808421734962292
-0.16014371226560423
-0.15275041090860517
-0.1459113036778243
-0.13962611127923003
-0.13388728472560385
-0.12868000533652085
-0.12398218473833739
-0.11976446486421882
-0.11599021795412423
-0.1126155465547975
-0.10958928351979064
-0.10685299200943943
-0.10434096549088223
-0.1019840928193127
-0.09980297985404052
-0.09780991645649634
-0.09599044741168666
-0.09433060288196576
-0.09281689840704765
-0.09143633490399367
-0.09017639866722216
-0.08902506136850447
-0.08797078005696168
-0.08700249715907143
-0.08610964047866376
-0.08528212319691986
-0.08451034387237677
-0.08378518644092198
-0.08309802021579799
-0.0824406998876005
-0.08180556552427626
-0.0811854425711277
-0.08057364185080784
-0.07996395956332486
-0.07935067728603956
-0.07872856197366451
-0.07809286595826698
-0.0774393269492672
-0.076764168033437
-0.07606409767490346
-0.07533630971514443
-0.07457848337299267
-0.07378878324463423
-0.07296585930360594
-0.0721088469008001
-0.07121736676446194
-0.07029152500018765
-0.06933191309092945
-0.06833960789698967
-0.0673161716560261
-0.06626365198304962
-0.06518458187042153
-0.06408197968785906
-0.06295934918243257
-0.06182067947856246
-0.06066969564778396
-0.059495479437021714
-0.05829217561431593
-0.057058817355973346
-0.05579446189364318
-0.05449819051432375
-0.0531691085603595
-0.051806345429436906
-0.05040905457459316
-0.04897641350420634
-0.04750762378200407
-0.046001911027059805
-0.044458524913789044
-0.04287673917195689
-0.04125585158667444
-0.0395951839983944
-0.037894082302920795
-0.036151916451397925
-0.03436808045032019
-0.03254199236152788
-0.03067309430220244
-0.028760852444875862
-0.026804757017426073
-0.02480432230307167
-0.022759086640384008
-0.020668612423273225
-0.018532486101000445
-0.016350318178173062
-0.014121743214738358
-0.011846419825995158
-0.00952403068258828
-0.007154282510502208
-0.004736906091075577
-0.002271656260984245
0.0002416880877433858
0.002803324007733421
0.005413424496272634
0.0080721384952952
0.010779590891389412
0.013535882515805009
0.016341090144435966
0.0191952664978407
0.022098440241223927
0.025050615984444802
0.028051774282024156
0.031101871633129274
0.034200840481581785
0.0373485892158652
0.04054500216910656
0.04378993961909816
0.047083237788278054
0.050424708843738286
0.053814140897234075
0.05725129800516565
0.06073592016858759
0.06426772333321784
0.06784639938941611
0.07147161617220871
0.07514754081812614
0.07887793534437576
0.08266084829419051
0.0864943199244983
0.0903763878900784
0.09430508724357128
0.09827845043545491
0.10229450731407241
0.10635128512560743
0.11044680851409461
0.11457909952143075
0.11874617758735273
0.12294605954944882
0.1271767596431692
0.13143628950180064
0.13572265815649587
0.1400338720362475
0.14436793496789924
0.14872284817615755
0.15309661028356836
0.15748721731052884
0.161892662675299
0.16631093719397427
0.170740029080517
0.17517792394672882
0.17962260480226266
0.18407205205463428
0.18852424350919883
0.19297715436916274
0.19742875723559516
0.20187702210740066
0.20631991638135083
0.2107554048520569
0.2151814497119806
0.21959601055144717
0.2239970443586209
0.2283825055195171
0.23275034581801468
0.2370985144358273
0.24142495795253582
0.24572762034556017
0.2500044429901721
0.2542533646595053
0.25847232152453004
0.2626592471540824
0.2668120725148382
0.2709287259713252
0.2750071332859326
0.2790452176188901
0.2830408995282787
0.28699209697004113
0.29089672529795674
0.2947526972636709
0.29855792301666895
0.30231031010428777
0.3060077634717254
0.30964818546202133
0.3132294758160654
0.31674953167260944
0.320206247568243
0.3235975154374192
0.32692122461243334
0.33017526182343204
0.3333575111984216
0.33646585426325104
0.3394981699416202
0.34245233455508883
0.34532622182305706
0.348117702862786
0.3508246461893806
0.35344491771579745
0.3559763807528509
0.3584168960091997
0.36076432159135374
0.36301651300368043
0.3651713231483906
0.36722660232555304
0.3691801982330831
0.3710299559667469
0.3727737180201667
0.374409324284811
0.3759346120499997
0.37734741600290833
0.3786455682285581
0.37982689820982585
0.38088923282743625
0.38183039635996596
0.38264820354362483
0.38333994680275807
0.3839052548647579
0.38434502015336525
0.3846601605873401
0.38485161958046377
0.38492036604153756
0.384867394374383
0.3846937244778419
0.38440040174577716
0.3839884970670715
0.38345910682562756
0.38281335290036966
0.38205238266524044
0.38117736898920496
0.38018951023624814
0.3790900302653739
0.37788017843060784
0.3765612295809968
0.3751344840606047
0.3736012677085204
0.371962931858848
0.37022085334071564
0.36837643447827273
0.36643110309068383
0.3643863124921385
0.36224354149184745
0.3600042943940356
0.35767010099795626
0.3552425165978751
0.35272312198308375
0.35011352343789537
0.3474153527416357
0.3446302671686582
0.3417599494883371
0.3388061079650587
0.33577047635824087
0.33265481392231033
0.3294609054067229
0.3261905610559547
0.3228456166094934
0.31942793330185604
0.31593939786257985
0.31238192251621344
0.30875744498233837
0.3050679284755433
0.30131536170544737
0.29750175887669017
0.2936291596889211
0.2896996293368209
0.28571525851009005
0.281678163393439
0.27759048566661293
0.273454392504363
0.26927207657647134
0.26504575604774083
0.2607776745779833
0.2564701013220423
0.25212533092978173
0.2477456835460744
0.24333350481082905
0.23889116585895886
0.23442106332040924
0.22992561932014632
0.22540728147814426
0.22086852290940984
0.2163118422239697
0.21173976352685975
0.20715483641815124
0.2025596359929206
0.19795676284127595
0.19334884304834643
0.18873852819426884
0.18412849535421305
0.17952144709836904
0.17492011149193443
0.1703272420951446
0.16574561796323817
0.16117804364648625
0.15662734919018095
0.15209639013462206
0.14758804751514232
0.14310522786209412
0.13865086320083875
0.134227911051774
0.12983935443030137
0.12548820184685527
0.12117748730689004
0.11691012912713583
0.11268410611671198
0.10849829550782186
0.1043535069264987
0.10025052450714123
0.0961901068925034
0.09217298723371636
0.08819987319027661
0.08427144693003635
0.0803883651292277
0.07655125897243475
0.07276073415261819
0.06901737087110416
0.06532172383757517
0.06167432227008951
0.058075669895071236
0.05452624494730096
0.051026500169937705
0.04757686281449425
0.044177734640858446
0.04082949191728397
0.03753248542038179
0.034287040435137306
0.031093456754902327
0.0279520086813857
0.02486294502467351
0.021826489103207003
0.018842838743801438
0.01591216628163772
0.013034618560255451
0.010210316931567431
0.007439357255852652
0.0047218099017486415
0.0020577197462683383
-0.0005528938252185589
-0.0031100369189693278
-0.005613741132875549
-0.008064063556469436
-0.010461086770910677
-0.01280491884899293
-0.01509569335515032
-0.017333569345442612
-0.019518731367571818
-0.021651389460867865
-0.02373177915629504
-0.025760161476456878
-0.027736822935585714
-0.029662075539547916
-0.03153625678584915
-0.03335972966362227
-0.03513288265364056
-0.03685612972830682
-0.03852991035165765
-0.04015468947936851
-0.04173095755874423
-0.04325923052872371
-0.04474004981988422
-0.046173982354431375
-0.04756162054621038
-0.04890358230069636
-0.050200511014998894
-0.051453075577864604
-0.05266197036967102
-0.05382791526242969
-0.05495165561978954
-0.056033962297029116
-0.05707563164106516
-0.05807748549044539
-0.05904037117535177
-0.059965161517602894
-0.060852754830648836
-0.06170407491957347
-0.06252007108109753
-0.06330171810357244
-0.06405001626698653
-0.06476599134296024
-0.06545069459474778
-0.06610520277723975
-0.06673061813695852
-0.0673280684120608
-0.06789870683233873
-0.06844371211921657
-0.06896428848575453
-0.06946166563664552
-0.06993709876821635
-0.07039186856842916
-0.07082609909384979
-0.07123743005773148
-0.07162623755225106
-0.07199307770629426
-0.07233849939846371
-0.07266304425707598
-0.07296724666016313
-0.07325163373547333
-0.07351672536046888
-0.07376303416232771
-0.07399106551794349
-0.07420131755392417
-0.07439428114659402
-0.0745704399219918
-0.07473027025587142
-0.07487424127370279
-0.07500281485067034
-0.07511644561167391
-0.07521558093132885
-0.07530066093396548
-0.07537211849362963
-0.07543037923408197
-0.0754758615287986
-0.07550897650097099
-0.07553012802350584
-0.07553971271902477
-0.07553811995986509
-0.07552573186807898
-0.07550292331543407
-0.0754700619234131
-0.07542750806321424
-0.07537561485575073
-0.07531472817165102
-0.07524518663125901
-0.07516732160463352
-0.07508145721154907
-0.07498791032149493
-0.07488699055367587
-0.07477900027701195
-0.07466423461013832
-0.07454298142140542
-0.07441552132887891
-0.07428212770033976
-0.07414306665328424
-0.07399859705492356
-0.07384897052218442
-0.073694431421709
-0.07353521686985398
-0.07337155673269213
-0.07320367362601077
-0.07303178291531276
-0.07285609271581656
-0.07267680389245501
-0.07249411005987694
-0.07230819758244633
-0.07211924557424182
-0.0719274258990581
-0.07173290317040443
-0.0715358347515056
-0.07133637075530191
-0.07113465404444824
-0.0709308202313152
-0.07072499767798884
-0.07051730749626967
-0.07030786354767421
-0.07009677244343376
-0.06988413354449502
-0.06967003896152013
-0.06945457355488588
-0.069237814934685
-0.06901983346072521
-0.0688006922425291
-0.06858044713933509
-0.06835914676009636
-0.06813683246348151
-0.06791353835787467
-0.06768929130137452
-0.06746411090179572
-0.06723800951666792
-0.06701099225323559
-0.06678305696845915
-0.06655419426901349
-0.0663243875112895
-0.06609361280139292
-0.06586183899514447
-0.06562902769808071
-0.06539513326545321
-0.06516010280222834
-0.06492387616308853
-0.06468638595245085
-0.06444760081305323
-0.06420758596585391
-0.0639664125478357
-0.06372415034794077
-0.06348086780707013
-0.06323663201808294
-0.06299150872579767
-0.06274556232699086
-0.06249885587039844
-0.062251451056715035
-0.06200340823859318
-0.06175478642064519
-0.06150564325944169
-0.06125603506351163
-0.0610060167933435
-0.06075564206138351
-0.06050496313203757
-0.06025403092167003
-0.060002894998603507
-0.05975160358311976
-0.05950020354745966
-0.05924874041582168
-0.05899725836436437
-0.05874580022120374
-0.05849440746641549
-0.05824312023203382
-0.05799197730205108
-0.05774101611241916
-0.05749027275104851
-0.057239781957807545
-0.05698957712452474
-0.05673969029498577
-0.05649015216493625
-0.05624099208208033
-0.055992238046080056
-0.05574391670855716
-0.05549605337309199
-0.05524867199522293
-0.055001795182447966
-0.05475544419422296
-0.05450963894196326
-0.0542643979890427
-0.054019738550793395
-0.053775676494506874
-0.05353222633943322
-0.05328940125678061
-0.0530472130697171
-0.05280567225336824
-0.05256478793481911
-0.05232456789311368
-0.05208501855925374
-0.05184614501620061
-0.051607950998874275
-0.051370438894152826
-0.05113360974087405
-0.05089746322983335
-0.050661997703785766
-0.050427210157444946
-0.05019309623748269
-0.04995965024252996
-0.049726865123176756
-0.049494732481971004
-0.04926324257342013
-0.04903238430398971
-0.048802145232104355
-0.04857251156814768
-0.04834346817446117
-0.048114998565345846
-0.047887084907061506
-0.047659708017825764
-0.04743284736781611
-0.04720648107916775
-0.046980585925975316
-0.04675513733429204
-0.046530109382129536
-0.04630547479945851
-0.046081204968208556
-0.045857269922267185
-0.04563363834748174
-0.04541027758165728
-0.04518715361455822
-0.04496423108790776
-0.044741473295387246
-0.04451884218263741
-0.044296298347257124
-0.04407380103880443
-0.04385130815879623
-0.04362877626070727
-0.04340616054997215
-0.043183414883983695
-0.04296049177209299
-0.04273734237561089
-0.04251391650780589
-0.04229016263390595
-0.042066027871097755
-0.041841457988526176
-0.041616397407295225
-0.04139078920046779
-0.04116457509306487
-0.04093769546206705
-0.040710089336412625
-0.04048169439699961
-0.04025244697668423
-0.04002228206028141
-0.03979113328456496
-0.03955893293826762
-0.039325611962080176
-0.03909109994865306
-0.03885532514259449
-0.038618214440472254
-0.038379693390812486
-0.03813968619409985
-0.03789811570277807
-0.037654903421249664
-0.037409969505875384
-0.03716323276497541
-0.036914610658827895
-0.036664019299670225
-0.0364113734516987
-0.036156586531067625
-0.03589957060589055
-0.03564023639623998
-0.03537849327414633
-0.035114249263599906
-0.03484741104054834
-0.03457788393289907
-0.03430557192051825
-0.03403037763522998
-0.03375220236081766
-0.033470946033023696
-0.03318650723954819
-0.03289878322005135
-0.03260766986615077
-0.032313061721423675
-0.03201485198140597
-0.03171293249359153
-0.03140719375743389
-0.031097524924345088
-0.030783813797695236
-0.030479418547058434
-0.030205926807384265
-0.02995989957819123
-0.02973750011722981
-0.029534969378437026
-0.02934862601193855
-0.02917486636404748
-0.029010164477263956
-0.028851072090276375
-0.02869421863796029
-0.028536311251379176
-0.02837413475778411
-0.028204551680613532
-0.0280245022394936
-0.027831004350238386
-0.02762115362484907
-0.02739212337151492
-0.0271411645946123
-0.026865605994705555
-0.026562853968546962
-0.026230392609075337
-0.0258657837054182
-0.025466666742890498
-0.025030758902993944
-0.024555855063419174
-0.024039827798043034
-0.023480627376930963
-0.02287628176633627
-0.02222489662869842
-0.021524655322645914
-0.020773818902994956
-0.019970726120747462
-0.01911379342309577
-0.018201514953416764
-0.01723246255127725
-0.01620528575243191
-0.015118711788820072
-0.013971545588571721
-0.012762669776004376
-0.011491044671619932
-0.010155708292112597
-0.008755776350359235
-0.007290442255427854
-0.005758977112574726
-0.004160729723239109
-0.0024951265850521875
-0.0007616718918329046
0.0010400524664166966
0.0029103869035008167
0.004849594137042501
0.0068578591884722595
0.008935289383032674
0.01108191434978445
0.013297686021594979
0.015582478635143893
0.01793608873092939
0.02035823515325358
0.022848559050239747
0.02540662387381698
0.028031915379726435
0.030723841627528836
0.03348173298059026
0.03630484210608914
0.0391923439750233
0.042143335862193376
0.045156837346222445
0.04823179030953845
0.05136705893838106
0.05456142972281108
0.05781361145669023
0.061122235237704214
0.06448585446734234
0.06790294485090637
0.07137190439751934
0.07489105342010755
0.07845863453540969
0.08207281266398642
0.0857316750301978
0.08943323116222929
0.09317541289206899
0.0969560743555174
0.10077299199219714
0.10462386454553363
0.10850631306276437
0.11241788089494908
0.11635603369694703
0.12031815942744295
0.12430156834892414
0.12830349302768962
0.1323210883338618
0.13635143144136486
0.1403915218279348
0.14443828127513159
0.14848855386831294
0.15253910599666287
0.15658662635316756
0.16062772593462493
0.1646589380416572
0.16867671827868713
0.1726774445539503
0.1766574170795051
0.18061285837120866
0.1845399132487443
0.1884346488355969
0.1922930545590642
0.19611104215026653
0.1998844456441261
0.20360902137937786
0.20728044799857936
0.2108943264480866
0.2144461799780818
0.2179314541425491
0.2213455167992857
0.22468365810991042
0.2279410905398449
0.23111294885832379
0.23419429013840243
0.23718009375693727
0.24006526139460815
0.24284461703589932
0.24551290696910755
0.24806479978634943
0.2504948863835462
0.25279767996043234
0.25496761602056117
0.2569990523712896
0.258886269123795
0.2606234686930611
0.26220477579788537
0.26362423746088126
0.26487582300847
0.26595342407088673
0.26685085458218094
0.26756185078021133
0.2680800712066521
0.26839909670698714
0.2685124304305141
0.2684134978303432
0.26809564666339625
0.2675521469904084
0.26677619117592577
0.2657608938883088
0.264499292099728
0.2629843450861682
0.261208934427427
0.25916587476711817
0.2568975016391236
0.25445389485283676
0.2518434690726955
0.24907450709588053
0.2461551598522974
0.24309344640459252
0.2398972539481471
0.23657433781106785
0.2331323214542037
0.22957869647113816
0.22592082258817903
0.22216592766438137
0.21832110769152036
0.21439332679411593
0.21038941722942195
0.20631607938741536
0.20217988179081814
0.19798726109508624
0.19374452208839854
0.1894578376916829
0.18513324895858607
0.18077666507550016
0.17639386336155116
0.17199048926858773
0.1675720563812042
0.1631439464167287
0.15871140922521176
0.15427956278945354
0.1498533932249726
0.14543775478003307
0.14103736983563342
0.1366568289054939
0.13230059063608102
0.1279729818065949
0.12367819732895824
0.119420300247843
0.11520322174064002
0.11103076111748555
0.10690658582124946
0.10283423142752479
0.09881710164464969
0.09485846831369626
0.09096147140845956
0.0871291190354831
0.0833642874340304
0.07966972097610941
0.07604803216646155
0.07250170164255293
0.0690330781745962
0.06564437866552575
0.06233768815101909
0.05911495979948744
0.05597801491206761
0.052928542922638766
0.04996810139781421
0.04709811603693287
0.04431988067207854
0.041622002779297784
0.03898439499506251
0.036411605261993385
0.03390827067552454
0.03147854634427061
0.029126105390018753
0.02685413894772304
0.02466535616551846
0.022561984204705732
0.020545768239763895
0.01861797145834493
0.01677937506126892
0.01503027826253367
0.01337049828931025
0.011799370381938123
0.010315747793935404
0.008918001791988095
0.007604021655959026
0.006371214678883685
0.005216506166967616
0.0041363394395925734
0.003126675829312864
0.0021829946818535673
0.0013002933561160335
0.0004730872241713868
-0.00030459032873386693
-0.0010391879041801722
-0.0017376360905770882
-0.0024073474631590708
-0.0030562165839876365
-0.003692620001953084
-0.00432541625277022
-0.004963945858983243
-0.005618031329961581
-0.006297977161901613
-0.007014569837828499
-0.007779077827592407
-0.00860325158787062
-0.00949932356216937
-0.010480008180818845
-0.011558501860979509
-0.01274848300663639
-0.014064112008600915
-0.015520031244515065
-0.01713136507884444
-0.018913719862880984
-0.020883183934748473
-0.023056327619390915
-0.025450203228586765
-0.0280823450609356
-0.030970769401863274
-0.034139248363682484
-0.03763821039500076
-0.0414798741261842
-0.04566483553342093
-0.050189219324889456
-0.05504467894078802
-0.06021839655330763
-0.06569308306664251
-0.07144697811700612
-0.07745385007260197
-0.0836829960336371
-0.0900992418323398
-0.0966629420329202
-0.10332997993161624
-0.11005176755665269
-0.11677524566825864
-0.12344288375868556
-0.12999268005217146
-0.13635816150495922
-0.14246838380531318
-0.14824793137348014
-0.15361691736173208
-0.1584909836543302
-0.16278130086754183
-0.16639456834964983
-0.16923301418093
-0.17119439517366525
-0.17217199687214774
-0.1720546335526693
-0.17072664822352737
-0.1680679126250238
-0.16395382722946938
-0.15825532124116806
-0.15083885259643842
-0.14156640796360953
-0.13032224473824344
-0.11725592082205927
-0.10229823577503144
-0.08531616093918976
-0.06619939193628899
-0.04486034866775085
-0.02123417531476479
0.004721259661753241
0.03302536352123925
0.06367481924331458
0.09664358552798696
0.1318828967954654
0.16932126318623253
0.20886447056115365
0.2503955805012764
0.2937749303079238
0.3388401330028167
0.3854060773278012
0.43326492774516734
0.4821861244373631
0.5319163833071151
0.582179695977564
0.6326773297920004
0.6830878278139959
0.7330670088275378
0.7822479673367172
0.8302410735660831
0.8766339734603342
0.9209915886844567
0.9628561166238369
1.0017470303840215
1.0371610787908514
1.0685497079499444
1.0954633319692428
1.1177778252583606
1.1354140641510604
1.148317632245337
1.1564588204034352
1.1598326267517765
1.1584587566810214
1.1523816228460348
1.141670345165915
1.126418750823945
1.1067453742676516
1.082793457208794
1.054730948623281
1.0227505047513308
0.987069489097271
0.9479299724297293
0.9055987327815621
0.8603672554497278
0.8125517329955131
0.7624930652444296
0.7105568592860713
0.6571334294744288
0.6026377974275229
0.5475096920277321
0.49221354942165485
0.43723851301995686
0.3830984334976677
0.33033186879403253
0.2794351023215169
0.23029210949145829
0.18294474803444694
0.137519884244106
0.09413187706254039
0.05288257808022817
0.013861331536252464
-0.02285502568182335
-0.05720216403804457
-0.08912826134784219
-0.1185940027782767
-0.14557258084783353
-0.17004969542651982
-0.1920235537359178
-0.2115048703490554
-0.22851686719048128
-0.24309527353629998
-0.2552883260140717
-0.2651567686029159
-0.27277385263343057
-0.2782253367877333
-0.2816094870994673
-0.28303707695377167
-0.28263138708730473
-0.280528205588234
-0.2768758278962438
-0.2718350568025199
-0.26557920244976874
-0.25829156311963675
-0.2500658612807263
-0.24100720201532755
-0.23125352454769654
-0.2209355563141474
-0.21017681296311452
-0.1990935983550792
-0.18779500456263623
-0.17638291187046554
-0.1649519887753012
-0.15358969198599218
-0.142376266423472
-0.1313847452207284
-0.12068094972287374
-0.11032348948706594
-0.10036376228257632
-0.0908459540907594
-0.08180703910502918
-0.07327677973090951
-0.06527772658600733
-0.05782521849999289
-0.050927382514648345
-0.04458513388381513
-0.038792176073437656
-0.0335350007615432
-0.02879288783822964
-0.024537905405693616
-0.02073490977821474
-0.01734154548214728
-0.01430824525594282
-0.011578230050125926
-0.009087509027314145
-0.006766162711896062
-0.004621743162215697
-0.002670931030034851
-0.0008974679290174592
0.0007142872158694136
0.002179358168344192
0.003512151380822892
0.004726455994409351
0.005835443838899446
0.0068516694327842576
0.007787069983243244
0.008652965386148459
0.00946005822606566
0.010218433776249924
0.010937559998650537
0.011626287543906821
0.012292849751350032
0.012944862649005073
0.013589324953586945
0.014232618070502301
0.014880506093851664
0.01553813580642488
0.01621003667970622
0.01690012087386983
0.017611683237781617
0.01834740130900142
0.019109335313779174
0.019898928167056018
0.020717005472467742
0.021563775522338735
0.022438829297688145
0.023341140468224997
0.024269065392349798
0.025220343117157595
0.026192095378432867
0.027180826600651575
0.0281824238969845
0.029197770241501997
0.03023827770403853
0.03130530464022763
0.03239966950248285
0.03352217722133344
0.03467361920541823
0.03585477334149295
0.037066403994423625
0.03830926200718898
0.03958408470088437
0.040891595874715136
0.04223250580599924
0.04360751125017165
0.045017295440775484
0.04646252808947193
0.04794386538603157
0.04946194999833803
0.05101741107239205
0.05261086423230349
0.054242911580295206
0.05591414169670744
0.05762512963998784
0.05937643694670297
0.06116861163152815
0.06300218818725162
0.06487768758477974
0.06679561727312677
0.06875647117942035
0.07076072970890629
0.0728088597449365
0.07490131464898309
0.07703853426062607
0.07922094489755827
0.08144895935559154
0.08372297690864483
0.08604338330875044
0.0884105507860597
0.09082483804882863
0.09328659028343533
0.09579613915436419
0.09835380280421235
0.10095988585369775
0.10361467940164393
0.10631846102498732
0.1090714947787852
0.11187403119619777
0.11472630728850874
0.11762854654510702
0.12058252713146245
0.12359341772428889
0.12666085947212402
0.12978398843918626
0.1329619182936258
0.13619374030750397
0.1394785233568162
0.1428153139214723
0.14620313608530433
0.14964099153607635
0.15312785956546626
0.1566626970690742
0.1602444385464329
0.1638719961009848
0.16754425944010787
0.1712600958750936
0.17501835032115565
0.17881784529744083
0.18265738092700823
0.18653573493683984
0.19045166265785063
0.1944038970248645
0.1983911485766422
0.20241210545585642
0.20646543340910273
0.21054977578691003
0.21466375354371925
0.21880596523789408
0.22297498703173202
0.22716937269143822
0.23138765358715563
0.23562833869293887
0.23988991458676512
0.24417084545054568
0.24846957307010298
0.25278451683518277
0.2571140737394644
0.2614566183805348
0.26581050295991915
0.2701740572830539
0.2745455887592977
0.27892338240194414
0.2833057008281977
0.2876907842591856
0.29207685051996946
0.2964620950395177
0.30084469085073795
0.30522278859044816
0.3095945164993892
0.3139579804222362
0.3183112638075757
0.3226524277079168
0.326979510779703
0.33129052928328506
0.33558347708295166
0.33985632564690316
0.34410702404726246
0.3483334989600865
0.3525336546653435
0.35670537304692485
0.3608465135926555
0.36495491339426844
0.36902838714743413
0.3730647271517348
0.37706170331067546
0.38101706313169437
0.3849285317261423
0.3887938118092925
0.3926105837003514
0.3963765053224345
0.4000892122025934
0.4037463174717927
0.40734541186491946
0.41088406372079356
0.4143598189821476
0.417770201195637
0.4211127115118498
0.42438482868528404
0.427584009074372
0.4307076866414612
0.43375327295282085
0.4367181571786516
0.439599706093066
0.4423952640741099
0.4451021531037438
0.4477176727678517
0.45023910025624714
0.4526636903626591
0.45498867548474
0.4572112656240708
0.4593286483861475
0.4613379889803966
0.4632364302201609
0.4650210925227072
0.4666890739092293
0.4682372240351811
0.46966257926946564
0.47096516166355495
0.47214535196802976
0.4732035616120004
0.4741402327030986
0.4749558380274804
0.475650881049829
0.47622589591334985
0.47668144743977336
0.47701813112935565
0.47723657316087575
0.47733743039163856
0.47732139035747256
0.4771891712727315
0.47694152203029305
0.47657922220155957
0.4761030820364591
0.4755139424634418
0.4748126750894852
0.47400018220008855
0.4730773967592776
0.4720452824096031
0.4709048334721375
0.46965707494648057
0.4683030625107566
0.46684388252161124
0.46528065201421975
0.4636145187022759
0.46184666097800287
0.45997828791214834
0.45801063925397933
0.4559449854312928
0.45378262755041043
0.4515248973961723
0.44917315743195163
0.44672880079963695
0.4441932513196485
0.44156796349093086
0.4388544224909463
0.43605414417568855
0.43316867507967605
0.4301995924159444
0.42714850407606375
0.4240170486301186
0.4208068953267251
0.4175197440930253
0.41415732553467666
0.4107214009358696
0.4072137622593198
0.4036362321462573
0.39999066391645033
0.396278941568178
0.39250297977825455
0.38866472390201745
0.38476614997332004
0.38080926470454957
0.37679610548661824
0.3727287403889521
0.3686092681595159
0.36443981822478455
0.3602225506897687
0.3559596563380032
0.3516533566315363
0.34730590371095205
0.3429195803953595
0.3384967001823802
0.33403960724817594
0.3295506764474172
0.3250323133133114
0.32048695405758965
0.3159170655704965
0.31132514542081213
0.3067137218558422
0.3020853538014042
0.29744263086185674
0.29278817332006624
0.2881246321374362
0.2834546889538947
0.27878105608788195
0.274106476536375
0.2694337239748755
0.26476560275739736
0.2601049479164954
0.25545462516323236
0.25081753088720804
0.24619659215654688
0.2415947667178857
0.2370150429963972
0.23246044009577993
0.2279340077982438
0.22343882656453973
0.2189780075339275
0.21455469252420278
0.21017205403168615
0.20583329523121052
0.201541649976146
0.19730000804050263
0.1931041044773638
0.18895222916912657
0.18484496209132184
0.18078286246233277
0.1767664687433833
0.1727962986385273
0.16887284909467015
0.16499659630155805
0.16116799569176754
0.1573874819407297
0.153655468966703
0.14997234993079678
0.14633849723696113
0.1427542625319771
0.13921997670547637
0.1357359498899312
0.13230247146064567
0.12891981003577657
0.12558821347630955
0.12230790888608045
0.11907910261176513
0.11590198024287235
0.11277670661176242
0.10970342579362591
0.10668226110650192
0.10371331511127091
0.10079666961164557
0.09793238565418777
0.09512050352829982
0.09236104276621748
0.08965400214302743
0.0869993596766469
0.08439707262784174
0.08184707750021797
0.07934929004021618
0.07690360523712414
0.0745098973230705
0.07216801977301834
0.06987780530477983
0.06763906587899998
0.06545159269917039
0.06331515621162365
0.06122950610552752
0.0591943713128959
0.05720946000858368
0.055274459610281046
0.053389036778526355
0.051552837416691644
0.04976548667099501
0.04802658893049494
0.04633572782708645
0.04469246623550993
0.04309634627334613
0.041546889301013024
0.04004359592177442
0.03858594598172971
0.037173398569822935
0.035805392017839444
0.03448134390040092
0.03320065103497427
0.031962689481866535
0.030766814544222587
0.02961236076803231
0.02849864194212237
0.02742495109816312
0.026390560510665906
0.025394721696979927
0.024436665417297887
0.023515601674653608
0.0226307197149187
0.02178118802680934
0.020966154341879206
0.02018474563452488
0.019436068121984063
0.01871920726433296
0.01803322776449079
0.017377173568217386
0.016750067864111817
0.01615091308361588
0.01557869090101055
0.015032362233418806
0.01451086724080447
0.014013125325970932
0.013538035134563753
0.013084474555068948
0.012651300718812708
0.012237349999962954
0.011841438015527672
0.011462359625356133
0.011098888932138673
0.010750782549920013
0.010420847886107032
0.010108935684600695
0.009814570758941155
0.009537284482687924
0.009276614789418436
0.009032106172729426
0.00880330968623616
0.008589782943572044
0.008391090118389788
0.008206801944360576
0.008036495715173897
0.007879755284538492
0.0077361710661810745
0.007605340033847607
0.007486865721302582
0.007380358222328798
0.0072854341907281905
0.007201716840321004
0.007128835944946232
0.007066427838461731
0.007014135414743605
0.006971608127687157
0.00693850199120577
0.006914479579231747
0.006899210025716251
0.006892369024628919
0.0068936388299579154
0.006902708255710044
0.006919272675911359
0.006943034024605665
0.006973700795856075
0.007010988043744226
0.007054617382370232
0.00710431698585301
0.007159821588330062
0.007220872483957641
0.007287217526910861
0.007358611131382808
0.007434814271585821
0.007515594481750987
0.007600725856127477
0.007689989048983492
0.007783171274606038
0.007880066307300315
0.00798047448139061
0.008084202691219788
0.008191064391148972
0.008300879595558697
0.00841347487884736
0.0085286833754325
0.008646344779750292
0.008766305346255276
0.008888417889420908
0.00901254178373928
0.009138542963721075
0.009266293923895663
0.009395673718810948
0.00952656796303386
0.00965886883114947
0.009792475057761818
0.009927291937493588
0.01006323132498621
0.01020021163489937
0.010338157841911999
0.01047700148072106
0.01061668064604282
0.010757139992611686
0.010898330735180761
0.011040210648522286
0.011182744067426642
0.011325901886702905
0.011469661561179345
0.01161400710570204
0.01175892909513665
0.011904424664366808
0.012050497508294844
0.012197157881842169
0.012344422599948668
0.012492315037572532
0.012640865129691203
0.012790109371300151
0.012940090817414263
0.013090859083066453
0.013242470343308221
0.013394987844699169
0.01354841858849043
0.013702699425971798
0.0138577658052495
0.014013554461242583
0.01417000341568464
0.014327051977122363
0.014484640740916377
0.014642711589241186
0.014801207691084728
0.014960073502248705
0.01511925476534881
0.015278698509814004
0.015438353051887621
0.015598167994625989
0.015758094227899366
0.015918083928392168
0.016078090559601965
0.01623806887184004
0.016397974902232104
0.016557765974716587
0.016717400700046514
0.016876838975788122
0.01703604198632136
0.017194972202840164
0.017353593383351906
0.017511870572677835
0.017669770102452964
0.0178272595911258
0.017984307943958944
0.01814088535302827
0.018296963297223523
0.018452514542248277
0.01860751314061998
0.01876193443166907
0.018915755041540583
0.019068952883192714
0.019221507156397644
0.01937339834774121
0.01952460823062252
0.019675119865255386
0.019824917598666447
0.019973987064696053
0.02012231518399915
0.020269890164043458
0.020416701499110956
0.020562739970296895
0.020707997645510623
0.0208524678794752
0.020996145313727288
0.021139025876616924
0.021281106783308523
0.021422386535779714
0.021562864922822167
0.021702543020040987
0.021841423189855047
0.021979509081497206
0.022116805631013703
0.022253319061264487
0.022389056881923664
0.022524027889478437
0.02265824216723039
0.022791711085294153
0.02292444730059845
0.02305646475688583
0.023187778684712168
0.023318405601447323
0.023448363311274978
0.023577670905191972
0.023706348761009688
0.023834418543352553
0.023961903203658985
0.024088826980181055
0.024215215397984713
0.024341095268949176
0.024466494691767926
0.02459144305194788
0.02471597102180967
0.024840110560487683
0.024963894913929807
0.025087358614898303
0.025210537482968365
0.025333468624529176
0.02545619043278391
0.02557874258774895
0.02570116605625511
0.025823503091946143
0.025945797235279955
0.02606809331352805
0.026190437440775705
0.026312877017921676
0.026435460732679106
0.026558238559573843
0.02668126175994634
0.026804582881950256
0.026928255760553188
0.027052335517536275
0.027176878561494533
0.027301942587836747
0.02742758657878519
0.027553870803375846
0.027680856817458854
0.0278086074636974
0.02793718687156893
0.028066660457364334
0.02819709492418826
0.02832855826195929
0.028461119747409336
0.028594849944084177
0.028729820702343478
0.0288661051593605
0.02900377773912205
0.029142914152428867
0.029283591396895403
0.029425887756949876
0.02956988280383388
0.02971565739560289
0.029863293677126534
0.030012875080087487
0.030164486322982353
0.03031821341112184
0.030474143636629702
0.030632365578444065
0.03079296910231638
0.030956045360811812
0.0311216867933094
0.031289987126001895
0.031461041371895426
0.031634945830810446
0.031811798089380505
0.03199169702105342
0.03217474278609023
0.03236103683156577
0.032550681891369226
0.03274378198620265
0.032938980226923986
0.033130180301765844
0.03331816386346853
0.03350462261464171
0.0336912330120025
0.03387965626637601
0.03407153834269594
0.0342685099600033
0.034472186591447296
0.03468416846428557
0.03490604055988278
0.035139372613712916
0.03538571911535682
0.0356466193085036
0.03592359719095106
0.036218161514604
0.03653180578547549
0.0368660082636873
0.03722223196346813
0.03760192465315565
0.03800651885519496
0.03843743184613874
0.03889606565664899
0.039383807071494636
0.03990202762955236
0.0404520836238082
0.04103531610135436
0.041653050863393104
0.04230659846523305
0.04299725421629075
0.043726298180092604
0.044494995174271246
0.04530459477056692
0.04615633129483032
0.04705142382701705
0.047991076201193805
0.048976477005532926
0.050008799582314634
0.05108920202792988
0.052218827192874906
0.05339880268175373
0.0546302408532815
0.05591423882027702
0.057251878449671834
0.05864422636250188
0.06009233393391089
0.06159723729315442
0.06315995732359247
0.06478149966269253
0.06646285470203445
0.06820499758730042
0.07000888821828649
0.07187547124889226
0.07380567608712496
0.07580041689510508
0.07786059258905592
0.07998708683930855
0.08218076807030777
0.08444248946059885
0.08677308894284264
0.08917338920380197
0.09164419768434812
0.09418630657946592
0.09680049283824255
0.09948751816387247
0.1022481290136652
0.10508305659902917
0.10799301688549012
0.1109787105926745
0.11404082319431663
0.11718002491826673
0.12039697074647526
0.12369230041500001
0.12706663841401578
0.1305205939877936
0.13405476113472437
0.13766971860729815
0.14136602991211233
0.1451442433098824
0.149007832250304
0.15298548206389517
0.1570759564716243
0.16126886129271445
0.165553995421025
0.16992135082502613
0.17436111254780862
0.17886365870709775
0.18341956049522745
0.18801958217915404
0.19265468110046702
0.19731600767536162
0.2019949053946709
0.20668291082383738
0.21137175360292448
0.21605335644663082
0.22071983514425886
0.22536349855975013
0.2299768486316548
0.23455258037314497
0.2390835818720265
0.24356293429071485
0.2479839118662467
0.2523399819102926
0.25662480480912897
0.2608322340236693
0.26495631608943704
0.26899129061657756
0.2729315902898688
0.2767718408686991
0.2805068611870791
0.284131663153651
0.2876414517516652
0.2910316250390066
0.2942977741481724
0.29743568328628167
0.3004413297350833
0.3033108838509396
0.30604070906483516
0.3086273618823827
0.3110675918838077
0.31335834172396615
0.31549674713232867
0.3174801369129884
0.3193060329446653
0.32097215018069536
0.3224763966490368
0.3238168734522737
0.32499187476760616
0.32599988784686085
0.3268395930164827
0.3275098636775384
0.32800976630571876
0.3283385604513338
0.32849569873931583
0.328480826869219
0.32829378361521944
0.3279346008261136
0.32740350342532065
0.3267009094108816
0.3258274298554573
0.32478386890633215
0.3235712237854126
0.3221906847892232
0.32064363528891504
0.3189316517302555
0.31705650363363747
0.3150201535940762
0.3128247572812033
0.3104726634392765
0.3079664138871768
0.3053087435183993
0.30250258030107013
0.2995510452779271
0.2964574525663377
0.2932253093582905
0.2898583159203879
0.286360365593862
0.2827355447945674
0.27898819592010715
0.2751263802269758
0.2711595532057578
0.2670960422550904
0.2629439926206718
0.2587113673952488
0.25440594751863976
0.2500353317777234
0.24560693680642698
0.2411279970857535
0.2366055649437504
0.23204651055553727
0.22745752194329372
0.222845104976248
0.21821558337070002
0.21357509869001035
0.20892961034458712
0.20428489559191543
0.19964654953652416
0.19501998513001406
0.190410433171047
0.18582294230533203
0.1812623790256509
0.17673342767184563
0.1722405904308062
0.1677881873364988
0.16338035626993408
0.15902105295919444
0.1547140509794227
0.15046294175281028
0.14627113454862006
0.14214185648317534
0.13807815251984812
0.13408288546908553
0.13015873598838035
0.1263082025822967
0.12253360160245774
0.11883706724753773
0.1152205515632806
0.11168582444249053
0.10823447362502214
0.10486790469780316
0.10158734109480905
0.09839382409708447
0.09528821283273403
0.0922711842769145
0.08934323325185067
0.08650467242682758
0.08375563231818306
0.08109606128932462
0.07852572555071075
0.07604420915986698
0.0736509140213788
0.07134505988688572
0.06912568435509359
0.0669916428717684
0.06494160872973043
0.06297407306886793
0.06108734487612166
0.059279550985498475
0.05754863607806465
0.05589236268194231
0.05430831117231988
0.052793879771439955
0.05134628454860973
0.04996255942019634
0.04863955614962351
0.04737394434737857
0.04616221147100941
0.04500066282512033
0.04388542156138031
0.04281242867851437
0.04177744302231118
0.04077604128561868
0.03980361800834292
0.03888000151815807
